Time (s),Raw EMG,Filtered EMG
0.01344752311706543,0.0,0.0
0.015430450439453125,0.0,0.0
0.0228726863861084,0.0,0.0
0.02535390853881836,0.0,0.0
0.030806779861450195,-0.070953369140625,0.0
0.03328967094421387,-0.07080078125,0.0028004613767603466
0.03626418113708496,-0.070037841796875,0.002892579893197167
0.03775143623352051,-0.06988525390625,0.0030579364378217335
0.03973507881164551,-0.06927490234375,0.003342465408347896
0.04221463203430176,-0.06988525390625,-0.025737154853304044
0.04519319534301758,-0.0701904296875,-0.026869565754926
0.07871603965759277,-0.070648193359375,-0.027674253334212067
0.08218765258789062,-0.0689697265625,-0.028623954039361056
0.08665204048156738,-0.069580078125,-0.029379322197823687
0.09309959411621094,-0.069732666015625,-0.030453363730091505
0.10599565505981445,-0.06927490234375,-0.031349616672262305
0.10897183418273926,-0.069580078125,-0.03225663485029147
0.11343574523925781,-0.071258544921875,-0.03217480650782234
0.11591577529907227,-0.070343017578125,-0.032864393490033825
0.11889219284057617,-0.070343017578125,-0.03339396931771724
0.12087583541870117,-0.06988525390625,-0.033551192966311844
0.12186789512634277,-0.06988525390625,-0.03394433668647219
0.12434768676757812,-0.07080078125,-0.03480823779172481
0.13030004501342773,-0.07080078125,-0.03451084474643394
0.1357560157775879,-0.07049560546875,0.07131843087471401
0.1392371654510498,-0.070648193359375,0.07126223619085795
0.1426999568939209,-0.069580078125,0.07013429813812569
0.27925992012023926,-0.069732666015625,0.06948955961715583
0.2827322483062744,-0.06988525390625,0.06856771117056007
0.28620314598083496,-0.070037841796875,0.0695937144149767
0.28917908668518066,-0.069732666015625,0.06998172082838539
0.29215574264526367,-0.06988525390625,0.07108183358053688
0.2951314449310303,-0.06988525390625,0.0685313177953008
0.2976109981536865,-0.069732666015625,0.06938641483663048
0.3005855083465576,-0.07049560546875,0.06954946610753884
0.3040595054626465,-0.070343017578125,0.06902453774401164
0.3070352077484131,-0.070953369140625,0.06942048918516
0.310011625289917,-0.06988525390625,0.07195572128153815
0.3129870891571045,-0.07080078125,0.07061849837097264
0.31546735763549805,-0.0689697265625,0.0703483944603412
0.3179471492767334,-0.07049560546875,0.06964941830948529
0.3209230899810791,-0.069427490234375,0.06945149513492065
0.3238992691040039,-0.071258544921875,0.07119944130065847
0.3268735408782959,-0.069122314453125,0.0708967436076575
0.330843448638916,-0.07049560546875,0.07110071874864121
0.33530592918395996,-0.07049560546875,0.07077497945098202
0.3617134094238281,-0.070037841796875,0.06961401754275948
0.3666722774505615,-0.0701904296875,0.06907956600106852
0.3726236820220947,-0.068817138671875,0.0701719842601975
0.37659573554992676,-0.0701904296875,0.06979929849671443
0.3790738582611084,-0.070037841796875,0.06938761756876419
0.38155388832092285,-0.069122314453125,0.06978900373110963
0.3860185146331787,-0.06988525390625,0.06969054091580976
0.3899855613708496,-0.070953369140625,0.07005916213160043
0.3919696807861328,-0.069580078125,0.07069887252150042
0.39444971084594727,-0.069122314453125,0.07047776976500164
0.3999061584472656,-0.07049560546875,0.07174998041771576
0.4018893241882324,-0.070343017578125,0.06991384138023476
0.4033775329589844,-0.07080078125,0.07083241974204159
0.4073455333709717,-0.070037841796875,0.06866514707276052
0.4093294143676758,-0.069580078125,0.0711122347725307
0.411313533782959,-0.0701904296875,0.0689528015069042
0.41280150413513184,-0.0701904296875,0.07176053844375202
0.4152817726135254,-0.06866455078125,0.06837546362125399
0.41776156425476074,-0.07080078125,0.07066191969253753
0.4192500114440918,-0.07110595703125,0.07093349707526782
0.42073774337768555,-0.069580078125,0.07001822659898838
0.42172956466674805,-0.06927490234375,0.07018129333565973
0.42272162437438965,-0.06927490234375,0.0687487487051953
0.42371368408203125,-0.06927490234375,0.06994257546873582
0.42668771743774414,-0.070037841796875,0.06956796240635013
0.42768168449401855,-0.070037841796875,0.0688367186389764
0.42867350578308105,-0.070037841796875,0.0701100395193269
0.42966556549072266,-0.070037841796875,0.07171954762764018
0.43065810203552246,-0.06988525390625,0.06968637101378741
0.43164968490600586,-0.06988525390625,0.06869694588548135
0.43264150619506836,-0.069732666015625,0.07074417151072765
0.4331374168395996,-0.070953369140625,0.07050853439151256
0.4341294765472412,-0.070953369140625,0.0712366937788379
0.4351217746734619,-0.070037841796875,0.07015944515330164
0.4380965232849121,-0.0701904296875,0.06944286764476343
0.4390897750854492,-0.0701904296875,0.07042557516057787
0.43958616256713867,-0.069427490234375,0.06992570132318858
0.44057750701904297,-0.07171630859375,0.06759701214331779
0.4410734176635742,-0.070953369140625,0.07123186646853139
0.44156956672668457,-0.06988525390625,0.07159492456585713
0.4425618648529053,-0.06988525390625,0.06927422940499124
0.44405031204223633,-0.070343017578125,0.06913338262995608
0.4480173587799072,-0.069427490234375,0.06821851885748506
0.4485135078430176,-0.0689697265625,0.06846241538583665
0.44900941848754883,-0.06988525390625,0.07000713422200705
0.45000147819519043,-0.07080078125,0.07004879828452176
0.4504976272583008,-0.070037841796875,0.06990037143496934
0.4514896869659424,-0.070343017578125,0.07024567623302874
0.45198535919189453,-0.070037841796875,0.07023748536666113
0.45297765731811523,-0.070953369140625,0.06987468221863503
0.4534735679626465,-0.070953369140625,0.06931092356353757
0.4544656276702881,-0.0689697265625,0.0714356736558625
0.45694541931152344,-0.071563720703125,0.07123634746670746
0.4574418067932129,-0.07080078125,0.07009537808170438
0.4584336280822754,-0.07080078125,0.06991802324254472
0.45893120765686035,-0.071258544921875,0.06990203734624847
0.45992422103881836,-0.06988525390625,0.06958988139261812
0.46190595626831055,-0.069580078125,0.07190792678978045
0.46289777755737305,-0.07110595703125,0.07104464581234818
0.4633936882019043,-0.071563720703125,0.06949802441180226
0.46487975120544434,-0.071258544921875,0.0693140667290543
0.4683535099029541,-0.069732666015625,0.07053378429153408
0.46884965896606445,-0.069580078125,0.06924765527798735
0.46984148025512695,-0.069732666015625,0.06794645827301396
0.4703359603881836,-0.069732666015625,0.06911321071850184
0.47083401679992676,-0.069732666015625,0.07057917109863845
0.47182536125183105,-0.069732666015625,0.07005370294076965
0.4723215103149414,-0.069732666015625,0.07058760601556718
0.473313570022583,-0.06988525390625,0.07008742631467547
0.4743056297302246,-0.07110595703125,0.07147347046793924
0.4792661666870117,-0.069580078125,0.07153477543388082
0.4802577495574951,-0.07080078125,0.06852924039155134
0.48075175285339355,-0.070648193359375,0.07246103325880995
0.48174548149108887,-0.069122314453125,0.07126720935453164
0.4822421073913574,-0.069122314453125,0.07071030326323806
0.4832336902618408,-0.070648193359375,0.07200465328946709
0.4857139587402344,-0.069580078125,0.06952191563342172
0.4921598434448242,-0.06988525390625,0.06907180242021856
0.49315500259399414,-0.069732666015625,0.07198047278786554
0.4971201419830322,-0.0714111328125,0.07267957864428629
0.4996016025543213,-0.069427490234375,0.07167758185052464
0.5010895729064941,-0.069732666015625,0.06975048112242176
0.5020816326141357,-0.069732666015625,0.06941730682135885
0.5025777816772461,-0.070037841796875,0.0697101321453189
0.5030739307403564,-0.07049560546875,0.06903128060737454
0.5040655136108398,-0.069427490234375,0.06983823532842523
0.5060479640960693,-0.07171630859375,0.06968356700473227
0.5134880542755127,-0.07110595703125,0.06978038543424674
0.5149753093719482,-0.06866455078125,0.06986652891358805
0.5184500217437744,-0.070953369140625,0.07140472619713968
0.5194413661956787,-0.0701904296875,0.06965161861570857
0.5204334259033203,-0.070343017578125,0.07050934763286476
0.5209293365478516,-0.069580078125,0.07050226887750258
0.521425724029541,-0.068359375,0.06918433224223676
0.5224175453186035,-0.06988525390625,0.06822046220678227
0.5229136943817139,-0.071258544921875,0.07085159392753274
0.5239052772521973,-0.07110595703125,0.06924470751357242
0.5278737545013428,-0.06988525390625,0.07000453797031805
0.5288655757904053,-0.07049560546875,0.07024922595069492
0.5293617248535156,-0.0701904296875,0.07218723565226276
0.5303537845611572,-0.0701904296875,0.06865253848187852
0.5308496952056885,-0.0701904296875,0.06914519626498027
0.531841516494751,-0.0689697265625,0.06962989538719394
0.5323374271392822,-0.06927490234375,0.06979154292575447
0.5328333377838135,-0.070953369140625,0.07060487404427344
0.5338256359100342,-0.07049560546875,0.06907537257933594
0.5363054275512695,-0.0701904296875,0.07247089901751386
0.5387856960296631,-0.070037841796875,0.07205296619289467
0.5392892360687256,-0.069732666015625,0.06830470515574294
0.5397779941558838,-0.071868896484375,0.07103090925970226
0.5407695770263672,-0.071868896484375,0.07014610670160273
0.5412654876708984,-0.07110595703125,0.0704924242871889
0.5422592163085938,-0.069427490234375,0.06938907230961383
0.5427558422088623,-0.069427490234375,0.06763576904479213
0.5437483787536621,-0.069122314453125,0.0690411634611838
0.549201488494873,-0.06927490234375,0.07104156125155345
0.5496976375579834,-0.06927490234375,0.07109744994135188
0.5501935482025146,-0.06927490234375,0.06994954962226066
0.5511853694915771,-0.06927490234375,0.07087563336700387
0.5516817569732666,-0.069427490234375,0.07056121472606466
0.5526735782623291,-0.070343017578125,0.07052425846458875
0.5531697273254395,-0.070343017578125,0.07057620270685125
0.5536656379699707,-0.0701904296875,0.06877155634060353
0.5576322078704834,-0.0701904296875,0.06923885405102645
0.5586240291595459,-0.069732666015625,0.07169861667507338
0.5591206550598145,-0.069580078125,0.07063283277367428
0.5606088638305664,-0.069580078125,0.070163791975171
0.5630896091461182,-0.069580078125,0.0699908631326237
0.5635919570922852,-0.06988525390625,0.06953004215524569
0.5660660266876221,-0.0689697265625,0.0729126265294498
0.568049430847168,-0.069580078125,0.07294233642409886
0.5685455799102783,-0.069732666015625,0.07183079498328929
0.569537878036499,-0.070037841796875,0.06933359792853391
0.5700337886810303,-0.070037841796875,0.0692198291669469
0.5705294609069824,-0.069732666015625,0.06913882015284079
0.5715217590332031,-0.069427490234375,0.06911851585252432
0.5720176696777344,-0.069732666015625,0.0690466344990702
0.573009729385376,-0.0714111328125,0.06893206363288171
0.5735056400299072,-0.0714111328125,0.0689916207785934
0.5744955539703369,-0.070953369140625,0.06934204743100728
0.5769779682159424,-0.06988525390625,0.07082240359357408
0.5809454917907715,-0.069732666015625,0.07066798456109363
0.5824334621429443,-0.06927490234375,0.06974441114167844
0.583425760269165,-0.0689697265625,0.06969203554744885
0.5839216709136963,-0.0689697265625,0.06915129532595446
0.5859060287475586,-0.069732666015625,0.06934069020904732
0.588385820388794,-0.06927490234375,0.06943245478362234
0.5888814926147461,-0.069580078125,0.06960652264724088
0.5898737907409668,-0.070953369140625,0.07021314140622295
0.5903699398040771,-0.07080078125,0.06892145215029269
0.5908658504486084,-0.070953369140625,0.06953180873057552
0.59185791015625,-0.069427490234375,0.069961434815452
0.5958259105682373,-0.070037841796875,0.07024847748713785
0.5968177318572998,-0.070953369140625,0.06971339077703861
0.5978095531463623,-0.06988525390625,0.0693354834154136
0.5983054637908936,-0.06927490234375,0.06875786048286398
0.5992977619171143,-0.069732666015625,0.06980199639674375
0.5997939109802246,-0.06988525390625,0.0720860658609636
0.6002898216247559,-0.070648193359375,0.07171114384285385
0.6012816429138184,-0.070648193359375,0.07147666684539297
0.6017777919769287,-0.070037841796875,0.07013677249663723
0.6027696132659912,-0.070037841796875,0.06971084270199186
0.6032655239105225,-0.070343017578125,0.06896991963496124
0.6042578220367432,-0.068511962890625,0.06821271536079673
0.6052489280700684,-0.0689697265625,0.06812649936562976
0.608227014541626,-0.07049560546875,0.06952105112750237
0.6107056140899658,-0.069732666015625,0.06889714203366387
0.6116976737976074,-0.07049560546875,0.06919596612956777
0.612689733505249,-0.07049560546875,0.07202753009678635
0.6131858825683594,-0.07049560546875,0.07164651201236602
0.6136817932128906,-0.070343017578125,0.0712664655208468
0.6171536445617676,-0.0689697265625,0.06928953911406138
0.6181459426879883,-0.070037841796875,0.06983710222041477
0.6186418533325195,-0.07049560546875,0.07123308058957142
0.619633674621582,-0.07049560546875,0.069644873687333
0.6201295852661133,-0.070037841796875,0.06878550438574571
0.6206257343292236,-0.070037841796875,0.07001300668130886
0.6216180324554443,-0.070037841796875,0.06982358276453181
0.6221139430999756,-0.070037841796875,0.07077262100137918
0.6226098537445068,-0.06988525390625,0.07076181409210261
0.6236016750335693,-0.071563720703125,0.07002361756949346
0.6245920658111572,-0.070648193359375,0.07008880641397841
0.6280643939971924,-0.07049560546875,0.07050891481793906
0.6290559768676758,-0.070953369140625,0.06777312840326119
0.629554033279419,-0.070953369140625,0.06854136343783673
0.6305458545684814,-0.07110595703125,0.07013127923033527
0.6310417652130127,-0.07110595703125,0.06935000971103442
0.631537914276123,-0.06927490234375,0.07054570024615991
0.6325297355651855,-0.06927490234375,0.07028227908813664
0.6330256462097168,-0.06988525390625,0.07026837290350242
0.6335217952728271,-0.06988525390625,0.06998584597765867
0.6374881267547607,-0.0701904296875,0.06791734494752394
0.6379871368408203,-0.069122314453125,0.07026332315532549
0.6389775276184082,-0.0701904296875,0.07092882893738896
0.6394739151000977,-0.0714111328125,0.07074088676617438
0.639970064163208,-0.0714111328125,0.07011456829490842
0.6409616470336914,-0.07080078125,0.06999820812459812
0.6414577960968018,-0.07080078125,0.07042221743313401
0.6419517993927002,-0.07080078125,0.07001054317098884
0.6429469585418701,-0.07080078125,0.06928360939856487
0.6439378261566162,-0.069732666015625,0.07176645171925816
0.6479041576385498,-0.070343017578125,0.07059004105833455
0.6484029293060303,-0.06866455078125,0.07037786402942883
0.6493942737579346,-0.06866455078125,0.07098551260476446
0.6498899459838867,-0.0701904296875,0.07097342710320889
0.6508817672729492,-0.070343017578125,0.07168917750585513
0.6513779163360596,-0.070343017578125,0.07145099189772602
0.6518735885620117,-0.070343017578125,0.06940975442308084
0.6528658866882324,-0.070343017578125,0.06944483542794033
0.6533620357513428,-0.0701904296875,0.06975881920427612
0.6543538570404053,-0.06866455078125,0.06969050041511816
0.6573278903961182,-0.069122314453125,0.0700832429419417
0.6583216190338135,-0.069427490234375,0.06850374684695312
0.6588189601898193,-0.06927490234375,0.07010460681722183
0.6617939472198486,-0.069580078125,0.07197732399255069
0.6627857685089111,-0.071258544921875,0.07261797254734545
0.6632816791534424,-0.071258544921875,0.07161351024728102
0.666257381439209,-0.068817138671875,0.0715065393333601
0.6672496795654297,-0.0701904296875,0.07148668063436608
0.6677455902099609,-0.0701904296875,0.07142845770355684
0.6687378883361816,-0.069580078125,0.06914497938003136
0.669234037399292,-0.0701904296875,0.06999796452285385
0.6697299480438232,-0.0701904296875,0.06849684984251667
0.6707217693328857,-0.070343017578125,0.06795268398972473
0.6712179183959961,-0.068511962890625,0.07022972094376184
0.6722097396850586,-0.069580078125,0.07063348795414867
0.672705888748169,-0.070648193359375,0.07042963593874585
0.6736979484558105,-0.071563720703125,0.07046344796288997
0.6766722202301025,-0.069427490234375,0.0704283291931973
0.6786582469940186,-0.0701904296875,0.07086623232304046
0.679649829864502,-0.0714111328125,0.06820987449331245
0.6801459789276123,-0.0714111328125,0.06850704733834528
0.6806418895721436,-0.070953369140625,0.06856932378989726
0.6816339492797852,-0.069427490234375,0.06917764031479992
0.6821298599243164,-0.068511962890625,0.06927676660218329
0.6831216812133789,-0.070037841796875,0.07124003187397868
0.6836178302764893,-0.07049560546875,0.07126958596108945
0.6870899200439453,-0.070343017578125,0.06780349352137896
0.6880817413330078,-0.070037841796875,0.07045955223846517
0.6890738010406494,-0.069732666015625,0.07084452448300949
0.6895699501037598,-0.071563720703125,0.06932788917520202
0.6900663375854492,-0.0714111328125,0.07012345355235704
0.6910579204559326,-0.070343017578125,0.07017449812297816
0.6920502185821533,-0.069427490234375,0.07048559432808783
0.694528341293335,-0.069427490234375,0.06785114129211808
0.6970100402832031,-0.069732666015625,0.06869932419156882
0.6980018615722656,-0.069732666015625,0.07033862083248356
0.6984977722167969,-0.069580078125,0.07212040853120974
0.6994898319244385,-0.069732666015625,0.06930383645695475
0.6999857425689697,-0.070343017578125,0.07046597264373346
0.7009780406951904,-0.07080078125,0.07220187490373331
0.7014739513397217,-0.069580078125,0.07222901289487306
0.7019698619842529,-0.070343017578125,0.07156973565766869
0.7029619216918945,-0.07049560546875,0.0692707744048425
0.7034578323364258,-0.070648193359375,0.06766581380464962
0.705441951751709,-0.06988525390625,0.06975386145908108
0.7094125747680664,-0.06988525390625,0.07089885040544266
0.7108979225158691,-0.06988525390625,0.07036879532488964
0.7113943099975586,-0.06988525390625,0.06984563633055657
0.7118897438049316,-0.06988525390625,0.06931859186305969
0.7128818035125732,-0.06988525390625,0.0723543377479174
0.7133781909942627,-0.06988525390625,0.07213066776180119
0.7163538932800293,-0.068359375,0.07053942006899586
0.7173459529876709,-0.069732666015625,0.06911495517201417
0.7178418636322021,-0.07049560546875,0.06916900714617663
0.7188336849212646,-0.07049560546875,0.0696545658498379
0.719329833984375,-0.069580078125,0.06965588418048779
0.7203218936920166,-0.069580078125,0.07002766109439265
0.720818042755127,-0.069580078125,0.06972433933875094
0.7213139533996582,-0.069580078125,0.07032424788931342
0.7223057746887207,-0.069580078125,0.07099389243424378
0.722801685333252,-0.07080078125,0.06953811105225936
0.7237937450408936,-0.070953369140625,0.0707312920865302
0.7287530899047852,-0.069732666015625,0.07097266227896643
0.7297458648681641,-0.0714111328125,0.0711605824146599
0.7307376861572266,-0.07080078125,0.07009614648179499
0.7312338352203369,-0.06988525390625,0.06957501452367833
0.7322258949279785,-0.06927490234375,0.06945709013488503
0.7327220439910889,-0.069732666015625,0.06991716858027486
0.7332179546356201,-0.069732666015625,0.06924461978428206
0.7371861934661865,-0.070037841796875,0.06946333244495655
0.738178014755249,-0.06927490234375,0.06983487843657175
0.7391698360443115,-0.06927490234375,0.0677836082363995
0.7396659851074219,-0.0714111328125,0.06965946166205962
0.7401623725891113,-0.0714111328125,0.07088765256239805
0.7411537170410156,-0.0714111328125,0.070768239338068
0.7416496276855469,-0.0701904296875,0.06972043450118676
0.7426445484161377,-0.069732666015625,0.069694211617183
0.743138313293457,-0.069732666015625,0.06881260864001905
0.7436339855194092,-0.06927490234375,0.06878459605112261
0.7471058368682861,-0.07080078125,0.06873847383866272
0.7476017475128174,-0.07080078125,0.07109733313534143
0.7485940456390381,-0.068359375,0.07151531184146531
0.7490897178649902,-0.069122314453125,0.06960941779216945
0.7500817775726318,-0.070648193359375,0.07234250912647175
0.7505776882171631,-0.070648193359375,0.07087655433411709
0.7510738372802734,-0.070343017578125,0.06949176607966528
0.7520661354064941,-0.070037841796875,0.0695640496367512
0.7525620460510254,-0.070037841796875,0.06995967888508114
0.7535538673400879,-0.0701904296875,0.06935038027375542
0.7550418376922607,-0.069580078125,0.06979946895972217
0.757026195526123,-0.072021484375,0.06875199215986069
0.7575218677520752,-0.070648193359375,0.06897057958423149
0.7585136890411377,-0.069732666015625,0.07210944642579406
0.7590122222900391,-0.069732666015625,0.07201571869523071
0.759509801864624,-0.069732666015625,0.07226882441065532
0.7614905834197998,-0.06988525390625,0.06944722142783616
0.7619860172271729,-0.070343017578125,0.06929349469352516
0.7629778385162354,-0.0714111328125,0.06967740524273977
0.7634739875793457,-0.0714111328125,0.06904535213740942
0.7664501667022705,-0.070037841796875,0.07133291213682415
0.767441987991333,-0.070343017578125,0.07122787715939673
0.7684340476989746,-0.070343017578125,0.06741619663926238
0.7689297199249268,-0.06988525390625,0.06811050613464235
0.7694258689880371,-0.070037841796875,0.07034393205607692
0.7704212665557861,-0.0701904296875,0.07089402033867107
0.77091383934021,-0.069580078125,0.07032435046214394
0.7719058990478516,-0.069427490234375,0.06984375526897812
0.7724020481109619,-0.068817138671875,0.07002573205796363
0.7728977203369141,-0.068817138671875,0.0701740928583562
0.7738897800445557,-0.068817138671875,0.06920304849175887
0.775378942489624,-0.07049560546875,0.07309590978938213
0.7778561115264893,-0.06988525390625,0.0711853854711596
0.7818260192871094,-0.070648193359375,0.07006089964252164
0.7867863178253174,-0.06988525390625,0.07011792184787052
0.7882740497589111,-0.06927490234375,0.07011619105863964
0.7887697219848633,-0.070648193359375,0.06965205257970591
0.789762020111084,-0.071563720703125,0.07063028736023208
0.7902584075927734,-0.0701904296875,0.07194605759912384
0.7912499904632568,-0.0701904296875,0.0721935328996294
0.7917459011077881,-0.069427490234375,0.07040006994901465
0.792243242263794,-0.069427490234375,0.0702718830302703
0.7937300205230713,-0.069580078125,0.06987453357790241
0.7986907958984375,-0.070648193359375,0.0697268075509243
0.7996819019317627,-0.06988525390625,0.06998796901661844
0.800178050994873,-0.06988525390625,0.07049421855547389
0.8006737232208252,-0.06988525390625,0.06959378486100937
0.8016657829284668,-0.070648193359375,0.06931327231552786
0.8021619319915771,-0.0701904296875,0.06799716679533169
0.8046422004699707,-0.068817138671875,0.06827994791337817
0.8086118698120117,-0.06988525390625,0.068229954893602
0.8096051216125488,-0.06988525390625,0.07077985541050823
0.810593843460083,-0.06988525390625,0.06955622740915016
0.8110899925231934,-0.069732666015625,0.07086932203094928
0.8125784397125244,-0.070648193359375,0.07029014002235329
0.8135697841644287,-0.07110595703125,0.06900036510822516
0.8140659332275391,-0.0701904296875,0.0710710307447544
0.8190243244171143,-0.07110595703125,0.07240539000042454
0.8200180530548096,-0.070037841796875,0.07045952246564188
0.8205137252807617,-0.070037841796875,0.07004551778238946
0.8215057849884033,-0.068817138671875,0.06870350082010598
0.8220019340515137,-0.069732666015625,0.0690108356031599
0.8229939937591553,-0.070648193359375,0.06889116431223813
0.8234899044036865,-0.07080078125,0.07093842928628422
0.8249778747558594,-0.070343017578125,0.06980663507599591
0.8289458751678467,-0.06988525390625,0.07029653356756764
0.8299379348754883,-0.07171630859375,0.06992986260834218
0.8304338455200195,-0.070648193359375,0.07076977702723161
0.8314259052276611,-0.07049560546875,0.06997063898291064
0.8319220542907715,-0.068817138671875,0.06809213235786937
0.8324177265167236,-0.06927490234375,0.06980805887952533
0.8334097862243652,-0.069122314453125,0.06907480303198504
0.8363845348358154,-0.06988525390625,0.0694757786812288
0.837378740310669,-0.068817138671875,0.06932969384861255
0.8383700847625732,-0.069580078125,0.07134149850502076
0.8388659954071045,-0.069580078125,0.0718940644002002
0.8393619060516357,-0.069580078125,0.07060860770998281
0.8403544425964355,-0.07110595703125,0.07167747049665671
0.8408501148223877,-0.070648193359375,0.07058735532773411
0.8418421745300293,-0.069427490234375,0.07027949128034494
0.844325065612793,-0.06927490234375,0.06842004832855922
0.847792387008667,-0.07049560546875,0.0697900040472397
0.8492820262908936,-0.069580078125,0.070580462302233
0.8497779369354248,-0.07080078125,0.07093510440398967
0.8507699966430664,-0.0701904296875,0.07078942186079458
0.8512659072875977,-0.0701904296875,0.07015808098130932
0.851762056350708,-0.0701904296875,0.0723992153488504
0.8527541160583496,-0.069580078125,0.07117118304260503
0.8532500267028809,-0.070343017578125,0.07041950213636458
0.8557302951812744,-0.06927490234375,0.06817532148629221
0.8572180271148682,-0.071258544921875,0.068808483825484
0.8577139377593994,-0.071258544921875,0.0686515479995288
0.8587069511413574,-0.06988525390625,0.07003800948742187
0.8592047691345215,-0.06988525390625,0.06808567343750663
0.8611862659454346,-0.069732666015625,0.06966167915886887
0.8616819381713867,-0.0701904296875,0.06885325453894983
0.8626742362976074,-0.0701904296875,0.06884479146897826
0.8631701469421387,-0.07110595703125,0.07166470356982219
0.8641622066497803,-0.071258544921875,0.07102361342450503
0.8666419982910156,-0.07080078125,0.06927844215413101
0.8676340579986572,-0.070953369140625,0.0688553036096183
0.8681302070617676,-0.070037841796875,0.07068573319880525
0.8686258792877197,-0.069732666015625,0.06890830814391699
0.8696181774139404,-0.069732666015625,0.0706366073033036
0.8701140880584717,-0.0701904296875,0.06989371921413688
0.8711061477661133,-0.06927490234375,0.06983621265078628
0.8716020584106445,-0.069580078125,0.07016397049699721
0.872593879699707,-0.06988525390625,0.06939680254611148
0.8730897903442383,-0.071563720703125,0.07055874577101179
0.874082088470459,-0.071258544921875,0.06885320405464518
0.8780510425567627,-0.070037841796875,0.07218345935816183
0.8790419101715088,-0.071563720703125,0.07203424293899305
0.8800337314605713,-0.070953369140625,0.0699362341516038
0.8805298805236816,-0.070343017578125,0.06922759127976104
0.8815219402313232,-0.069427490234375,0.06907573986827173
0.8820180892944336,-0.068817138671875,0.07021002114418383
0.8825139999389648,-0.06988525390625,0.06956192516292034
0.8835060596466064,-0.0701904296875,0.07119372602531604
0.8854901790618896,-0.070343017578125,0.0716702321640145
0.8874740600585938,-0.069427490234375,0.07137008425202454
0.8879702091217041,-0.069580078125,0.07183289248406699
0.8884658813476562,-0.069122314453125,0.07006087395543473
0.8894579410552979,-0.070343017578125,0.06946572322451926
0.8899538516998291,-0.0714111328125,0.06944717655938579
0.8909461498260498,-0.07080078125,0.07054576728871562
0.8914422988891602,-0.06988525390625,0.06911010845683183
0.8924367427825928,-0.069580078125,0.0697350093530171
0.892935037612915,-0.069580078125,0.06969899299259427
0.8934259414672852,-0.069580078125,0.07175728976199991
0.8988821506500244,-0.0689697265625,0.07152501420002505
0.8993780612945557,-0.070037841796875,0.07004187329299638
0.9003701210021973,-0.07080078125,0.07248892513056733
0.9008660316467285,-0.070037841796875,0.0716162493475183
0.9013621807098389,-0.070037841796875,0.0706833099589069
0.9023540019989014,-0.0701904296875,0.06957819018388302
0.9028501510620117,-0.06988525390625,0.0682532871649548
0.9038419723510742,-0.06988525390625,0.06951693060320058
0.9073116779327393,-0.07110595703125,0.0702694210346531
0.9078104496002197,-0.07110595703125,0.07054363718323886
0.9088034629821777,-0.06988525390625,0.06911423734747969
0.9093008041381836,-0.069732666015625,0.06941844613575442
0.9117779731750488,-0.070037841796875,0.0687354280135058
0.9127700328826904,-0.07110595703125,0.0700683771002912
0.9137623310089111,-0.07110595703125,0.07168074382493567
0.9162421226501465,-0.068359375,0.07125334394651228
0.917233943939209,-0.06988525390625,0.06984865786739583
0.9182262420654297,-0.070343017578125,0.06933458830124381
0.9187221527099609,-0.070343017578125,0.06891010428688943
0.9197139739990234,-0.070343017578125,0.06888620394728129
0.9202098846435547,-0.069580078125,0.06909237078493045
0.9207057952880859,-0.0701904296875,0.07006666960193784
0.9216983318328857,-0.069122314453125,0.07104628413846414
0.922194242477417,-0.069732666015625,0.06986185806115594
0.9226901531219482,-0.069732666015625,0.06988039616390405
0.9236819744110107,-0.07080078125,0.07041857379826638
0.9256668090820312,-0.069732666015625,0.06976392634005057
0.9296343326568604,-0.0714111328125,0.0701633724740961
0.9301300048828125,-0.0714111328125,0.07182094372000622
0.9311220645904541,-0.070953369140625,0.0718307733555811
0.9316177368164062,-0.070953369140625,0.069559096257956
0.9321138858795166,-0.070953369140625,0.06976100618048878
0.9331059455871582,-0.069732666015625,0.06953314905438757
0.9336018562316895,-0.07080078125,0.07105267900522833
0.936082124710083,-0.07049560546875,0.07125721614174554
0.9375700950622559,-0.068817138671875,0.06713116631308251
0.9385621547698975,-0.069122314453125,0.06932645501158191
0.9390585422515869,-0.069122314453125,0.07051167122842589
0.9395544528961182,-0.071258544921875,0.0700797509473587
0.9405465126037598,-0.070953369140625,0.07027480744151429
0.9410421848297119,-0.07049560546875,0.0698137977185789
0.9420359134674072,-0.0701904296875,0.07061409423490833
0.9425325393676758,-0.0701904296875,0.06903673056328286
0.9440183639526367,-0.069732666015625,0.06909019987580453
0.9455053806304932,-0.06988525390625,0.06917783769396509
0.9484820365905762,-0.06927490234375,0.07095322154437034
0.9494743347167969,-0.0701904296875,0.0694584260497875
0.949970006942749,-0.070648193359375,0.07200073953719771
0.9509620666503906,-0.06988525390625,0.07220978939052422
0.9514584541320801,-0.070037841796875,0.07144467021057999
0.9524502754211426,-0.0701904296875,0.07171009277223692
0.9529461860656738,-0.0701904296875,0.07135583410469123
0.9539382457733154,-0.070037841796875,0.06934188941811216
0.9569125175476074,-0.069732666015625,0.07123206275604352
0.9579071998596191,-0.069732666015625,0.07070507030608755
0.958402156829834,-0.07110595703125,0.06813706434705362
0.9593970775604248,-0.069732666015625,0.0686429347970134
0.9608819484710693,-0.069732666015625,0.06865117031945206
0.9628665447235107,-0.071258544921875,0.07196776928802862
0.9633617401123047,-0.07110595703125,0.07158163068243904
0.9648482799530029,-0.06927490234375,0.07033238905150593
0.9673299789428711,-0.07049560546875,0.07035218832579807
0.9683220386505127,-0.070343017578125,0.0704092320123696
0.968817949295044,-0.070343017578125,0.0690966041690111
0.9693140983581543,-0.070343017578125,0.06936119825409481
0.9703061580657959,-0.070343017578125,0.06918828632327931
0.9708020687103271,-0.06927490234375,0.07007020927630517
0.9712984561920166,-0.06927490234375,0.07076812292537427
0.9722902774810791,-0.069580078125,0.06962578863428592
0.9727864265441895,-0.069580078125,0.0698602129347163
0.9732823371887207,-0.06988525390625,0.07008193037019302
0.9782438278198242,-0.070037841796875,0.07053043070117618
0.9787392616271973,-0.069732666015625,0.07032725570101281
0.9797298908233643,-0.071563720703125,0.06975194041540023
0.9802262783050537,-0.071563720703125,0.06983558403712481
0.9812178611755371,-0.069580078125,0.07177135996710515
0.9817142486572266,-0.068206787109375,0.0695888190530553
0.9822103977203369,-0.06927490234375,0.06966484774330095
0.9832017421722412,-0.070648193359375,0.07123203808762195
0.9846904277801514,-0.0701904296875,0.07102102410339042
0.9871704578399658,-0.0701904296875,0.06905645124453791
0.9881620407104492,-0.069122314453125,0.07145722420463123
0.9886581897735596,-0.069122314453125,0.07078698576267523
0.9896502494812012,-0.06927490234375,0.07023293810996586
0.9901461601257324,-0.07080078125,0.07041022308483505
0.9911379814147949,-0.07110595703125,0.07046115514043164
0.9916341304779053,-0.06988525390625,0.0693145095416885
0.992626428604126,-0.06988525390625,0.0692856671110798
0.993617057800293,-0.0701904296875,0.06969780203664598
0.9970901012420654,-0.070343017578125,0.0690938221244661
0.9985783100128174,-0.07080078125,0.06940994095348962
0.9990739822387695,-0.0701904296875,0.07013683066163928
1.0000660419464111,-0.070648193359375,0.06966234933479445
1.0005619525909424,-0.070648193359375,0.07229045546295176
1.0015544891357422,-0.070648193359375,0.07222414018209913
1.0020503997802734,-0.070648193359375,0.06906753361936857
1.0025465488433838,-0.07049560546875,0.06725492211425393
1.0035381317138672,-0.07049560546875,0.06865239214730964
1.0040338039398193,-0.0701904296875,0.0706916229663585
1.0055224895477295,-0.069580078125,0.0699872808355832
1.0070099830627441,-0.070648193359375,0.06995359417335689
1.0075061321258545,-0.07049560546875,0.06845531150133134
1.008497953414917,-0.07049560546875,0.06844434919748119
1.010976791381836,-0.06988525390625,0.06879539796006767
1.0119707584381104,-0.0701904296875,0.07130626732354325
1.0129621028900146,-0.070037841796875,0.07134940817167008
1.013458013534546,-0.070953369140625,0.06957831797407754
1.014946460723877,-0.06927490234375,0.06961067115978217
1.0174262523651123,-0.0701904296875,0.07025052311073357
1.0179221630096436,-0.0701904296875,0.07039859677639042
1.018913984298706,-0.0701904296875,0.07114826115975253
1.0194098949432373,-0.07080078125,0.06986442297755098
1.0199060440063477,-0.070648193359375,0.07125236198728471
1.0208981037139893,-0.06988525390625,0.07089139012755338
1.0213942527770996,-0.069122314453125,0.07086450376624934
1.022386074066162,-0.069427490234375,0.07083659864518424
1.0228819847106934,-0.0714111328125,0.07036792533891845
1.0233783721923828,-0.0714111328125,0.07049362721414804
1.026848316192627,-0.06927490234375,0.07034396560797808
1.0283384323120117,-0.069580078125,0.06967468068273387
1.0288341045379639,-0.07049560546875,0.07118001638393612
1.0298261642456055,-0.07110595703125,0.07018359412596414
1.0303220748901367,-0.071258544921875,0.07017847443290257
1.030817985534668,-0.071258544921875,0.07013192837286605
1.0318100452423096,-0.06866455078125,0.07048476708058979
1.0323066711425781,-0.068359375,0.06979346806274497
1.0328023433685303,-0.0701904296875,0.07088859372632608
1.0342905521392822,-0.070343017578125,0.06837053332949541
1.0352802276611328,-0.069580078125,0.06971620687476753
1.0372660160064697,-0.069580078125,0.070736532656874
1.0382583141326904,-0.069732666015625,0.0708983687904575
1.0387539863586426,-0.069122314453125,0.07109697828936412
1.039250135421753,-0.070648193359375,0.07077895701007417
1.0402421951293945,-0.070648193359375,0.07000899801689241
1.0407381057739258,-0.070648193359375,0.06888152831688163
1.0417304039001465,-0.06988525390625,0.06928609304955805
1.0422275066375732,-0.070037841796875,0.07247880520700667
1.042724609375,-0.070037841796875,0.07187512214693392
1.047184705734253,-0.0701904296875,0.06867398458079067
1.0476834774017334,-0.068817138671875,0.06912142747702718
1.0486741065979004,-0.068359375,0.07073634459753911
1.0491702556610107,-0.0701904296875,0.07156820139203927
1.049666166305542,-0.069732666015625,0.07186357412736652
1.0506584644317627,-0.069732666015625,0.07177634718842432
1.0511541366577148,-0.069732666015625,0.06846542878390667
1.0521461963653564,-0.06988525390625,0.0682228535169434
1.0526421070098877,-0.06988525390625,0.07023592368607473
1.053138256072998,-0.06988525390625,0.07064504509715291
1.0541303157806396,-0.06927490234375,0.06950891314543668
1.0566108226776123,-0.071258544921875,0.06948713121499757
1.058098554611206,-0.07110595703125,0.06973161624393026
1.0585954189300537,-0.070343017578125,0.06881558379327968
1.0595884323120117,-0.069580078125,0.07106459781059468
1.0610747337341309,-0.069732666015625,0.07129047137933937
1.0620667934417725,-0.06988525390625,0.07048933900788512
1.0625624656677246,-0.06988525390625,0.06938797271609018
1.0630583763122559,-0.07049560546875,0.06990285293784304
1.0640501976013184,-0.069427490234375,0.07023206534933771
1.0655364990234375,-0.069122314453125,0.07036157776837688
1.0675220489501953,-0.07080078125,0.0682405264915839
1.068514347076416,-0.06988525390625,0.0676233679151041
1.0690102577209473,-0.07049560546875,0.07006784632813257
1.0700023174285889,-0.0701904296875,0.069839940938117
1.070497989654541,-0.070037841796875,0.06996864010495929
1.0709943771362305,-0.069427490234375,0.06928829140846751
1.071986436843872,-0.068511962890625,0.06985415735552669
1.0724823474884033,-0.07110595703125,0.06956839186864909
1.0734741687774658,-0.071258544921875,0.06978455353972363
1.0749602317810059,-0.069732666015625,0.0689395767194036
1.078434944152832,-0.0701904296875,0.07209387610590015
1.0799221992492676,-0.071563720703125,0.07227925307738564
1.0809144973754883,-0.069732666015625,0.0701549789279596
1.0819063186645508,-0.068817138671875,0.06885709598098
1.082401990890503,-0.070037841796875,0.06965370546568708
1.0828983783721924,-0.070037841796875,0.06974655331336768
1.0843863487243652,-0.070343017578125,0.06917303653341532
1.088850498199463,-0.07049560546875,0.07081887212873353
1.089346170425415,-0.07049560546875,0.06961860073194975
1.0903379917144775,-0.07049560546875,0.06868733984573483
1.090834617614746,-0.07049560546875,0.07119420902063575
1.0918264389038086,-0.070037841796875,0.06970482005569675
1.0933146476745605,-0.069732666015625,0.07053019887781303
1.097778558731079,-0.07110595703125,0.07005497621669478
1.0987703800201416,-0.0689697265625,0.06987290738212454
1.0992662906646729,-0.069732666015625,0.06887093823561607
1.1002583503723145,-0.0701904296875,0.0677173892190348
1.1007544994354248,-0.0701904296875,0.0717358037058031
1.1017463207244873,-0.06988525390625,0.07140424304017068
1.1022419929504395,-0.06988525390625,0.06997904160121407
1.1027381420135498,-0.069427490234375,0.07037291294484124
1.1037304401397705,-0.069732666015625,0.07222246523233072
1.105712890625,-0.06866455078125,0.06949868679142587
1.1076984405517578,-0.071258544921875,0.0682129080963556
1.108194351196289,-0.06927490234375,0.07013846803382606
1.1091885566711426,-0.06927490234375,0.07025422727407873
1.1101782321929932,-0.070343017578125,0.07059689029133186
1.1106743812561035,-0.06988525390625,0.07131528897109277
1.111666202545166,-0.069427490234375,0.07025182320029251
1.1121621131896973,-0.06988525390625,0.07102509777906374
1.1126582622528076,-0.070648193359375,0.07105727797450873
1.1136503219604492,-0.07049560546875,0.06997483283997592
1.1146423816680908,-0.068817138671875,0.0696923870475927
1.1156344413757324,-0.070037841796875,0.07186526942264984
1.1191046237945557,-0.070037841796875,0.0685457264367748
1.119603157043457,-0.070037841796875,0.0693663382911923
1.1205942630767822,-0.069122314453125,0.07009376889466978
1.121586561203003,-0.06927490234375,0.07073871964814556
1.122082233428955,-0.07049560546875,0.06980629056001399
1.1230742931365967,-0.07110595703125,0.06984783580990651
1.123570203781128,-0.0714111328125,0.06918330064794319
1.1250584125518799,-0.06988525390625,0.0700268632349625
1.1275382041931152,-0.069580078125,0.06833070639748248
1.1280343532562256,-0.0701904296875,0.07170001455423242
1.1290264129638672,-0.07080078125,0.06849926418584815
1.1295223236083984,-0.071563720703125,0.06837046214833967
1.130514144897461,-0.070953369140625,0.07059521425719445
1.1310102939605713,-0.0701904296875,0.07002124777967958
1.1315064430236816,-0.069732666015625,0.06907016033080574
1.1324985027313232,-0.069732666015625,0.0694831562884897
1.1329944133758545,-0.070648193359375,0.07029120915545654
1.133986234664917,-0.070343017578125,0.07031997597185705
1.1359703540802002,-0.06988525390625,0.0681024513252824
1.1379518508911133,-0.069732666015625,0.07009684091277771
1.1384501457214355,-0.06927490234375,0.070103229346894
1.1394424438476562,-0.07049560546875,0.06971733441146405
1.1399383544921875,-0.07110595703125,0.0685156802996458
1.1404345035552979,-0.07110595703125,0.0689555263048048
1.1414265632629395,-0.0701904296875,0.07085128658838044
1.141920804977417,-0.069580078125,0.07193171158321104
1.1429147720336914,-0.06988525390625,0.07188238357568111
1.1434106826782227,-0.070037841796875,0.06935972596993788
1.1453945636749268,-0.0701904296875,0.06889045906344368
1.146881103515625,-0.070648193359375,0.0701671560967965
1.1498591899871826,-0.070343017578125,0.07135107799416872
1.1503541469573975,-0.070648193359375,0.07236709988402243
1.1508502960205078,-0.070648193359375,0.07141334326293798
1.1518423557281494,-0.070648193359375,0.07021597384443393
1.1523382663726807,-0.070953369140625,0.06934416738690538
1.1533305644989014,-0.07049560546875,0.06947401296340917
1.1538262367248535,-0.07049560546875,0.07069495509648194
1.1568024158477783,-0.071563720703125,0.07023224639867244
1.1597793102264404,-0.069732666015625,0.06958423257220467
1.1607704162597656,-0.069732666015625,0.06915259799584603
1.1622576713562012,-0.0701904296875,0.06864717372949028
1.1647374629974365,-0.068817138671875,0.0704848869049503
1.166722297668457,-0.069427490234375,0.07089629877337655
1.1677143573760986,-0.070037841796875,0.07164985598411039
1.1682102680206299,-0.06988525390625,0.0703194276724321
1.1687064170837402,-0.06988525390625,0.06922406276704676
1.1696982383728027,-0.0701904296875,0.07024960952226673
1.170194387435913,-0.0701904296875,0.07026939708007068
1.1706902980804443,-0.0701904296875,0.07026298258928693
1.171682357788086,-0.069122314453125,0.07101388017713559
1.1721787452697754,-0.07049560546875,0.07052440608472967
1.173170566558838,-0.0714111328125,0.07091348772973724
1.17366623878479,-0.071258544921875,0.07094854417042334
1.1771385669708252,-0.070037841796875,0.07094259148618509
1.178626298904419,-0.069580078125,0.07179378492848054
1.1791222095489502,-0.07110595703125,0.07054842310520487
1.1806104183197021,-0.069732666015625,0.07022013483252074
1.1816022396087646,-0.069732666015625,0.07179270672630801
1.182098150253296,-0.06988525390625,0.06953922824655043
1.1825942993164062,-0.070648193359375,0.0697354062518572
1.1835863590240479,-0.070343017578125,0.0698265475795013
1.1850745677947998,-0.06988525390625,0.06831143669222847
1.1880502700805664,-0.070343017578125,0.069214004407393
1.1885464191436768,-0.069732666015625,0.07009000754788434
1.1900343894958496,-0.072021484375,0.06952939728380363
1.1910266876220703,-0.070037841796875,0.06973554242646454
1.1925148963928223,-0.06988525390625,0.07030172725967
1.1935062408447266,-0.070037841796875,0.07011582382524917
1.1989636421203613,-0.069580078125,0.0703738280360012
1.1999545097351074,-0.070343017578125,0.06782596957824803
1.200946569442749,-0.07110595703125,0.07068655112408821
1.2014422416687012,-0.069580078125,0.07215158939898836
1.2019383907318115,-0.070037841796875,0.0718098474186176
1.202930212020874,-0.06988525390625,0.07020060599149544
1.2034263610839844,-0.069580078125,0.06920973516650487
1.2059061527252197,-0.069580078125,0.07115387904040694
1.2093775272369385,-0.06927490234375,0.06971499173027973
1.2108664512634277,-0.069732666015625,0.06952554813517027
1.211362361907959,-0.070343017578125,0.06983556367334037
1.2123544216156006,-0.0714111328125,0.07112879351255395
1.212850570678711,-0.0714111328125,0.07072725682034019
1.2138423919677734,-0.071258544921875,0.07018420407208825
1.214834451675415,-0.06927490234375,0.07069366485697437
1.2168188095092773,-0.071258544921875,0.06946475694461796
1.2192986011505127,-0.0701904296875,0.07251169088778314
1.219794511795044,-0.07049560546875,0.06948197629260702
1.2207865715026855,-0.06927490234375,0.0693010069428202
1.2212822437286377,-0.068359375,0.0702790379178747
1.221778392791748,-0.069732666015625,0.06875880393065337
1.2227704524993896,-0.07110595703125,0.07036691669878148
1.2242584228515625,-0.070037841796875,0.07142978075041284
1.2262439727783203,-0.069580078125,0.06960816433009072
1.2292182445526123,-0.06988525390625,0.07067257191878137
1.230210304260254,-0.06988525390625,0.06992835950751511
1.2307064533233643,-0.07049560546875,0.06891187387126974
1.2312030792236328,-0.0689697265625,0.06935525673785203
1.2321946620941162,-0.069122314453125,0.0690325180125452
1.2326905727386475,-0.070648193359375,0.06960799948936147
1.23368239402771,-0.07049560546875,0.0705838724810259
1.234673023223877,-0.070648193359375,0.07192360438575798
1.237154245376587,-0.0701904296875,0.07255287609574165
1.2386400699615479,-0.0701904296875,0.072269553085536
1.2391383647918701,-0.07049560546875,0.06869839448040643
1.2401304244995117,-0.071258544921875,0.07171818281237868
1.240626573562622,-0.071258544921875,0.0700799190467189
1.2416186332702637,-0.069427490234375,0.0707109582163904
1.242114782333374,-0.069732666015625,0.06881568752907868
1.2436022758483887,-0.069427490234375,0.06733339094020462
1.2465784549713135,-0.070953369140625,0.06904549334164534
1.2495543956756592,-0.0701904296875,0.07112764102576064
1.2500503063201904,-0.070343017578125,0.07023725741513615
1.251042366027832,-0.070037841796875,0.06945088240208412
1.2515385150909424,-0.06988525390625,0.07003149717723056
1.252530574798584,-0.0701904296875,0.06941070057083049
1.2530262470245361,-0.0701904296875,0.07063162713493056
1.2540183067321777,-0.069122314453125,0.06829192432345861
1.2555065155029297,-0.06866455078125,0.06860156971742554
1.259474515914917,-0.069732666015625,0.07092761524718331
1.2599704265594482,-0.069732666015625,0.07062132525072609
1.2604665756225586,-0.0701904296875,0.07084649025871473
1.261458396911621,-0.0701904296875,0.07062134304344647
1.2619543075561523,-0.070648193359375,0.07083329576842945
1.262946605682373,-0.0714111328125,0.07089654309431836
1.2639384269714355,-0.069580078125,0.07207274848318268
1.26641845703125,-0.06927490234375,0.07181897851024494
1.267411231994629,-0.070343017578125,0.06907099909436548
1.2684025764465332,-0.069732666015625,0.06937341315715453
1.2688982486724854,-0.070037841796875,0.06856238849891019
1.2708828449249268,-0.069732666015625,0.07157708130671159
1.271378517150879,-0.069122314453125,0.0705629480089526
1.2718744277954102,-0.069732666015625,0.0703393472408883
1.2728662490844727,-0.071563720703125,0.07015044675543891
1.273362398147583,-0.071563720703125,0.06987156265583899
1.2773303985595703,-0.06927490234375,0.07045149830828268
1.278322458267212,-0.06988525390625,0.07062169283760614
1.2788183689117432,-0.070648193359375,0.06881993542771786
1.279811143875122,-0.070648193359375,0.06741457602520969
1.2803065776824951,-0.0714111328125,0.06897372505573307
1.2812983989715576,-0.06988525390625,0.06992046112926704
1.2817943096160889,-0.069427490234375,0.07031357131068655
1.2822904586791992,-0.06988525390625,0.06998783179413534
1.2832825183868408,-0.070648193359375,0.070678303885819
1.2857623100280762,-0.069427490234375,0.07151835936096483
1.2882425785064697,-0.06927490234375,0.06934128316888094
1.2892343997955322,-0.06927490234375,0.0690752413871331
1.2897303104400635,-0.06927490234375,0.07049467514157763
1.290722370147705,-0.07080078125,0.06927155277167714
1.2912189960479736,-0.0701904296875,0.07027846807947011
1.2927064895629883,-0.069580078125,0.06987768251169063
1.2936983108520508,-0.069580078125,0.06896277701196675
1.295184850692749,-0.070343017578125,0.06989347069736887
1.2986571788787842,-0.070037841796875,0.0720418728170383
1.2991535663604736,-0.070037841796875,0.07226535362825601
1.3001468181610107,-0.070037841796875,0.06909938705232718
1.3006422519683838,-0.06927490234375,0.07002022493566094
1.3016343116760254,-0.070343017578125,0.07082228201563093
1.3021304607391357,-0.070343017578125,0.0709817636557882
1.302626371383667,-0.070343017578125,0.07211737071046603
1.3036184310913086,-0.070343017578125,0.0698375854547839
1.304114580154419,-0.070343017578125,0.06946817947530079
1.3090732097625732,-0.069580078125,0.06972406454114605
1.3100666999816895,-0.06927490234375,0.07082336743110297
1.3115544319152832,-0.070343017578125,0.06898038644817758
1.3125462532043457,-0.07080078125,0.06878448817505108
1.3130426406860352,-0.070648193359375,0.06879345907030776
1.3140344619750977,-0.069580078125,0.06909689843724842
1.316016435623169,-0.070037841796875,0.0714703238198306
1.3209784030914307,-0.068817138671875,0.07015345929851496
1.321474313735962,-0.069122314453125,0.06899794298559536
1.3224666118621826,-0.06988525390625,0.0690541978930099
1.3229625225067139,-0.0714111328125,0.07064926798791392
1.3249449729919434,-0.069427490234375,0.07007299347560345
1.3299064636230469,-0.071258544921875,0.07050090273426599
1.3304026126861572,-0.07049560546875,0.07047462685379108
1.3313944339752197,-0.069732666015625,0.06901259120063392
1.33189058303833,-0.070037841796875,0.06994872003377461
1.3323862552642822,-0.069580078125,0.07075263705906168
1.333378553390503,-0.070953369140625,0.06999046203762095
1.3348665237426758,-0.069732666015625,0.07033213216120077
1.3353626728057861,-0.06988525390625,0.0705903693006246
1.3398253917694092,-0.071563720703125,0.06933899782589215
1.3408184051513672,-0.0701904296875,0.06914035523562387
1.3418104648590088,-0.06988525390625,0.07012398287302647
1.343794822692871,-0.069732666015625,0.07128266963545014
1.3462731838226318,-0.071563720703125,0.07099497007146922
1.3497447967529297,-0.069427490234375,0.06878197347367898
1.350738763809204,-0.070648193359375,0.06991722116927176
1.3512344360351562,-0.07049560546875,0.06826991305257255
1.3517305850982666,-0.069580078125,0.06879082609813097
1.352722406387329,-0.070037841796875,0.06914688235375058
1.3532185554504395,-0.070037841796875,0.07229709145955629
1.3552026748657227,-0.06927490234375,0.06885060036817095
1.356194257736206,-0.06927490234375,0.07160558209352103
1.3566901683807373,-0.06927490234375,0.07083892591487903
1.3581783771514893,-0.06988525390625,0.06952267135241279
1.360656976699829,-0.069580078125,0.07000216191506432
1.3616502285003662,-0.069580078125,0.06962389812659382
1.3621466159820557,-0.0701904296875,0.07169061387430245
1.3631384372711182,-0.07110595703125,0.06991051613710102
1.3636341094970703,-0.07110595703125,0.06993839590999036
1.3651225566864014,-0.06988525390625,0.07257325909406863
1.3666105270385742,-0.070343017578125,0.07048810156474922
1.3690886497497559,-0.06988525390625,0.06980881716544421
1.3710734844207764,-0.06988525390625,0.06918044611102396
1.3715713024139404,-0.06988525390625,0.07188710276721126
1.3725621700286865,-0.070037841796875,0.06918023280956781
1.3730583190917969,-0.070343017578125,0.07081983620341412
1.3740506172180176,-0.070343017578125,0.07078519477846829
1.3755369186401367,-0.069122314453125,0.06942127425953254
1.3770263195037842,-0.06988525390625,0.07005860140151685
1.3790104389190674,-0.069580078125,0.07002680816233928
1.3814902305603027,-0.07080078125,0.06874765205445325
1.383474588394165,-0.0689697265625,0.06878639025493538
1.3839704990386963,-0.07049560546875,0.06921316700806061
1.3859548568725586,-0.069427490234375,0.0698884687628378
1.3869450092315674,-0.070037841796875,0.06952170384540678
1.388434648513794,-0.0689697265625,0.0690503716133703
1.3904187679290771,-0.070343017578125,0.07066093249545231
1.393890619277954,-0.06927490234375,0.07147222545077808
1.396369218826294,-0.071868896484375,0.07186058444481275
1.3978588581085205,-0.07049560546875,0.06989929111218537
1.4008355140686035,-0.070037841796875,0.07096971649944621
1.4018266201019287,-0.069427490234375,0.06972344845123435
1.40232253074646,-0.06988525390625,0.07013443872453526
1.4033145904541016,-0.0701904296875,0.06909290930432957
1.4043052196502686,-0.070037841796875,0.06985710201753637
1.4057927131652832,-0.069732666015625,0.07048372614385726
1.407283067703247,-0.070343017578125,0.07072292886460929
1.4097609519958496,-0.069732666015625,0.06874804301208563
1.4117467403411865,-0.069732666015625,0.06973786545846497
1.4122424125671387,-0.069732666015625,0.06934096962694489
1.412738561630249,-0.07049560546875,0.07128718745961823
1.4137308597564697,-0.070648193359375,0.06833746068816905
1.4162108898162842,-0.0701904296875,0.07086485362333209
1.4181928634643555,-0.069732666015625,0.06926045745692298
1.4201784133911133,-0.069427490234375,0.07016073836260239
1.4206745624542236,-0.069427490234375,0.06824647130685446
1.4216663837432861,-0.069427490234375,0.07022148135905543
1.4221622943878174,-0.069732666015625,0.06880314567355564
1.4226584434509277,-0.0714111328125,0.07287034884169952
1.4236507415771484,-0.071258544921875,0.07101894021893995
1.4251370429992676,-0.06988525390625,0.07034293928528945
1.4291067123413086,-0.06988525390625,0.06939293433195645
1.4300987720489502,-0.07110595703125,0.06996435686754131
1.4305946826934814,-0.06927490234375,0.06977927521037827
1.4315862655639648,-0.068817138671875,0.06951182152704297
1.4320826530456543,-0.06988525390625,0.06957982398869755
1.433074712753296,-0.0701904296875,0.07053522879052496
1.4335708618164062,-0.0701904296875,0.06913265352275244
1.4360508918762207,-0.070343017578125,0.0698661557488808
1.4390277862548828,-0.070648193359375,0.0700801341944568
1.4395227432250977,-0.070648193359375,0.07081691395982395
1.4405148029327393,-0.071258544921875,0.07092265949836739
1.4410104751586914,-0.069427490234375,0.07026143979896128
1.442002773284912,-0.069732666015625,0.06944197202635555
1.443490743637085,-0.069732666015625,0.06886695406673515
1.444978952407837,-0.069580078125,0.06885473347824445
1.4484508037567139,-0.0689697265625,0.06858354151091527
1.4494426250457764,-0.0701904296875,0.06974798522356579
1.4499385356903076,-0.070953369140625,0.07218933180180492
1.4509308338165283,-0.070037841796875,0.07199928020524304
1.4514267444610596,-0.069580078125,0.06998522811950675
1.452418565750122,-0.069580078125,0.07023148188220092
1.4529147148132324,-0.06988525390625,0.07157108064513232
1.4534106254577637,-0.06988525390625,0.06852953170075071
1.4548964500427246,-0.069122314453125,0.06820329537688391
1.4583711624145508,-0.070037841796875,0.06995618880129358
1.4603545665740967,-0.0701904296875,0.07045730666466711
1.460850715637207,-0.0701904296875,0.07034640952356276
1.4613466262817383,-0.0701904296875,0.07057654602614238
1.4623386859893799,-0.07049560546875,0.07135070480404071
1.4628348350524902,-0.070648193359375,0.07100295975623697
1.4638266563415527,-0.070648193359375,0.07185422688265097
1.4672987461090088,-0.070343017578125,0.06911671497305227
1.4682905673980713,-0.07049560546875,0.06955516565323994
1.4687864780426025,-0.06988525390625,0.06943060920762059
1.4697787761688232,-0.0701904296875,0.06910532676480446
1.4702749252319336,-0.0701904296875,0.06819331847011618
1.471266746520996,-0.069427490234375,0.07012860054084188
1.4717624187469482,-0.069427490234375,0.07116823252934101
1.472754716873169,-0.069732666015625,0.07004516963254442
1.4732506275177002,-0.07110595703125,0.0692507597841672
1.4742414951324463,-0.069580078125,0.06930082777991545
1.476226568222046,-0.069427490234375,0.07001028292748962
1.4792027473449707,-0.070037841796875,0.07001996657920145
1.4801948070526123,-0.07080078125,0.06879456811257367
1.4806907176971436,-0.07080078125,0.0696296258965082
1.4816827774047852,-0.07080078125,0.07046776469055488
1.4821786880493164,-0.068817138671875,0.0705457163905606
1.4826743602752686,-0.069732666015625,0.0702334188271965
1.4836666584014893,-0.070343017578125,0.07041105502123546
1.4851555824279785,-0.070037841796875,0.07064634681939397
1.4881296157836914,-0.070648193359375,0.07061744401193015
1.4886267185211182,-0.070648193359375,0.07099164980684144
1.4891228675842285,-0.071258544921875,0.07086944167700868
1.490114688873291,-0.071258544921875,0.06973846686785674
1.4906103610992432,-0.07171630859375,0.07031618787639143
1.491603136062622,-0.07171630859375,0.07008559662423011
1.4925949573516846,-0.0701904296875,0.06893964581156808
1.4940829277038574,-0.069427490234375,0.06862119273363657
1.4960670471191406,-0.071563720703125,0.06902755047699788
1.497553825378418,-0.0701904296875,0.07095094509941174
1.4995386600494385,-0.07049560546875,0.06859090690297728
1.50053071975708,-0.0701904296875,0.06897923421801572
1.5010266304016113,-0.070648193359375,0.07020260385060229
1.502018928527832,-0.070648193359375,0.0704992047992858
1.504002571105957,-0.069580078125,0.07104475063566532
1.5064828395843506,-0.070953369140625,0.07088417532094568
1.5094587802886963,-0.069732666015625,0.06810543585434406
1.510451078414917,-0.069427490234375,0.06924230345620865
1.5109467506408691,-0.0701904296875,0.07013908190044327
1.511939525604248,-0.070037841796875,0.07015432050856549
1.512434720993042,-0.071258544921875,0.07051181319811657
1.5134270191192627,-0.071258544921875,0.07105594348288077
1.5149126052856445,-0.07110595703125,0.0721124867459609
1.5164027214050293,-0.06927490234375,0.07181694063535399
1.5173966884613037,-0.06927490234375,0.07249960224378721
1.5183868408203125,-0.070037841796875,0.0720023245663217
1.518883228302002,-0.0701904296875,0.06973321694157658
1.5198748111724854,-0.070343017578125,0.06864099866636661
1.520866870880127,-0.070648193359375,0.0725741927419459
1.5213627815246582,-0.06927490234375,0.070560948761278
1.5218589305877686,-0.06927490234375,0.0706693407005604
1.522850513458252,-0.07080078125,0.07015500225750024
1.5238425731658936,-0.07110595703125,0.07083399869150261
1.5253310203552246,-0.069732666015625,0.07071530080674879
1.5283043384552002,-0.069732666015625,0.06962692608963986
1.5288028717041016,-0.06988525390625,0.0716975235079646
1.529794692993164,-0.070648193359375,0.06927029849693794
1.5302908420562744,-0.070037841796875,0.06870310488651157
1.531282901763916,-0.069122314453125,0.07036561506254128
1.5317788124084473,-0.0689697265625,0.07011318120360005
1.5322747230529785,-0.070037841796875,0.07187477799025563
1.5332667827606201,-0.070343017578125,0.07160383958830083
1.5357511043548584,-0.06988525390625,0.07162521784964393
1.5367398262023926,-0.06988525390625,0.06925305454378339
1.5372350215911865,-0.069122314453125,0.0693363255810415
1.538226842880249,-0.069122314453125,0.07002556693910417
1.5387227535247803,-0.07080078125,0.07012440777660876
1.5397148132324219,-0.07080078125,0.07059729273720358
1.5402107238769531,-0.071258544921875,0.07105319088902412
1.5407066345214844,-0.070953369140625,0.06934040929505586
1.5416994094848633,-0.069580078125,0.06935033170640864
1.5421953201293945,-0.069580078125,0.07090005892169571
1.5431866645812988,-0.06988525390625,0.0713379246037536
1.5436830520629883,-0.06988525390625,0.0690920950695523
1.5446724891662598,-0.06988525390625,0.06918830486212144
1.5471527576446533,-0.071258544921875,0.06996259076899976
1.5476508140563965,-0.07110595703125,0.07116437908802509
1.548642873764038,-0.0689697265625,0.0701318647827173
1.5491390228271484,-0.069427490234375,0.06868670166314983
1.5496349334716797,-0.070037841796875,0.06848160747450852
1.550626516342163,-0.07049560546875,0.06953405365333565
1.5511226654052734,-0.07049560546875,0.07004273455485188
1.552114725112915,-0.06927490234375,0.07022209833400385
1.5526106357574463,-0.06927490234375,0.07001158102257321
1.5531070232391357,-0.069580078125,0.06863630579456374
1.5540988445281982,-0.068511962890625,0.06846004764494029
1.555586814880371,-0.069427490234375,0.07091278809468732
1.558067798614502,-0.0701904296875,0.07144355859262858
1.5600507259368896,-0.069427490234375,0.07217196559226069
1.560546636581421,-0.069427490234375,0.07157431194263686
1.5615389347076416,-0.06988525390625,0.06997418134846312
1.5620348453521729,-0.0701904296875,0.06964287245226494
1.562530755996704,-0.07110595703125,0.06980279397116802
1.5635225772857666,-0.07110595703125,0.07014698481832962
1.5650110244750977,-0.0689697265625,0.07015838209896968
1.5669925212860107,-0.07049560546875,0.07194570944385639
1.5684828758239746,-0.06988525390625,0.07165091691462334
1.569474697113037,-0.0701904296875,0.06805166965310536
1.5699708461761475,-0.070343017578125,0.06871690229266672
1.5704665184020996,-0.06988525390625,0.07049089323068228
1.5714585781097412,-0.068511962890625,0.07054503368653382
1.5719547271728516,-0.070953369140625,0.07072942396180718
1.5729467868804932,-0.07110595703125,0.06887544927466396
1.5734429359436035,-0.070648193359375,0.06881020544551686
1.5749289989471436,-0.069732666015625,0.06942808330403638
1.5779070854187012,-0.070037841796875,0.06837163254476866
1.5788986682891846,-0.07049560546875,0.06877376544554
1.5798907279968262,-0.07110595703125,0.06984658273188624
1.5803868770599365,-0.0701904296875,0.06889927312775161
1.5813789367675781,-0.06866455078125,0.06923275599619066
1.5818750858306885,-0.0689697265625,0.06974128075714378
1.5828666687011719,-0.0701904296875,0.0700222069317583
1.5833625793457031,-0.07049560546875,0.07117375315116378
1.584850788116455,-0.069732666015625,0.07154086639291046
1.5873308181762695,-0.0701904296875,0.06895366027299601
1.5878267288208008,-0.07049560546875,0.07115481425909159
1.5888187885284424,-0.069427490234375,0.06977616110580481
1.5893149375915527,-0.070953369140625,0.07006057689872894
1.589810848236084,-0.0714111328125,0.0706545821563813
1.5908026695251465,-0.07049560546875,0.06980858675378271
1.5912988185882568,-0.069732666015625,0.06759729717748446
1.5922911167144775,-0.069732666015625,0.07164719146218977
1.59328293800354,-0.070037841796875,0.07126071738642845
1.594768762588501,-0.070037841796875,0.07038086089635776
1.596754789352417,-0.07110595703125,0.06936409112753097
1.5977470874786377,-0.069580078125,0.07016908540218761
1.5982427597045898,-0.06866455078125,0.07080240033438928
1.5992348194122314,-0.069580078125,0.07155959062907083
1.5997307300567627,-0.07049560546875,0.07022908721559895
1.600226879119873,-0.070037841796875,0.06754414957237012
1.6012189388275146,-0.0701904296875,0.06858942131706441
1.601714849472046,-0.069732666015625,0.07080888828459125
1.6027066707611084,-0.070037841796875,0.07090091325354775
1.6032028198242188,-0.06988525390625,0.06940714748997559
1.605186939239502,-0.069122314453125,0.0702645282271604
1.6066746711730957,-0.0714111328125,0.07062746872162057
1.6086597442626953,-0.069580078125,0.0693102073663429
1.6101467609405518,-0.069732666015625,0.07139667475036171
1.610642671585083,-0.06927490234375,0.07214910405597535
1.6111388206481934,-0.069427490234375,0.07108372416307884
1.612130880355835,-0.070953369140625,0.06902042676421125
1.6126267910003662,-0.0714111328125,0.06980371721315792
1.6136186122894287,-0.070953369140625,0.0702222499833838
1.61411452293396,-0.06866455078125,0.07040100839955439
1.615602970123291,-0.06866455078125,0.07185969846911743
1.6175873279571533,-0.07049560546875,0.06896280270505059
1.6195707321166992,-0.070037841796875,0.06745401476784421
1.6200668811798096,-0.069732666015625,0.06895730817722824
1.6215553283691406,-0.06927490234375,0.07123772549853154
1.6220507621765137,-0.069427490234375,0.07056763424307434
1.622546672821045,-0.070648193359375,0.07007146905194976
1.6235387325286865,-0.070953369140625,0.0696120978618028
1.6245310306549072,-0.070343017578125,0.07020341099967518
1.6270110607147217,-0.06988525390625,0.07014765854263255
1.6275067329406738,-0.06988525390625,0.06894585926166996
1.6284987926483154,-0.06988525390625,0.07186840264233144
1.6289949417114258,-0.069427490234375,0.06899442417235449
1.6299867630004883,-0.071563720703125,0.0694340774299861
1.6304826736450195,-0.070648193359375,0.06901642203019973
1.6309788227081299,-0.070648193359375,0.06921281965083839
1.6319708824157715,-0.06866455078125,0.0714954357955295
1.6324667930603027,-0.069580078125,0.07229612603964967
1.6334586143493652,-0.07049560546875,0.07077657465785593
1.6349470615386963,-0.069732666015625,0.0677391699747684
1.635941743850708,-0.07049560546875,0.06769374224320021
1.638913869857788,-0.071258544921875,0.07126409013670737
1.6399071216583252,-0.071258544921875,0.07026487181145538
1.6404030323028564,-0.071258544921875,0.069443157039245
1.6408989429473877,-0.070343017578125,0.06907051231944711
1.6418914794921875,-0.069732666015625,0.06895984316958587
1.6433789730072021,-0.06988525390625,0.07043740471303066
1.6448650360107422,-0.06988525390625,0.07087645283179042
1.646850824356079,-0.070648193359375,0.06994227188024499
1.647843360900879,-0.070648193359375,0.06964491224874682
1.649827003479004,-0.070037841796875,0.06989642442100996
1.6503229141235352,-0.07049560546875,0.0698229220266707
1.6513147354125977,-0.06988525390625,0.06916868182802657
1.651810884475708,-0.069580078125,0.07202640137810168
1.6523070335388184,-0.0701904296875,0.07064023985511309
1.65329909324646,-0.0701904296875,0.07090755614158242
1.654784917831421,-0.06927490234375,0.06776270630133527
1.6557791233062744,-0.06988525390625,0.06934043772058901
1.6577630043029785,-0.071868896484375,0.07086589033156851
1.6582589149475098,-0.069122314453125,0.06956863294099719
1.6592507362365723,-0.0701904296875,0.07060242249908752
1.6602427959442139,-0.069732666015625,0.07216480236605341
1.6607389450073242,-0.069732666015625,0.07191634708233277
1.6617310047149658,-0.069732666015625,0.07109968607810414
1.662226915359497,-0.07080078125,0.07083067219779296
1.6627228260040283,-0.07110595703125,0.06954084851697218
1.66371488571167,-0.070037841796875,0.06996813033659768
1.6656990051269531,-0.06866455078125,0.06993629237426671
1.6686742305755615,-0.070343017578125,0.0710306649779158
1.6696667671203613,-0.070037841796875,0.07066162680032266
1.6701629161834717,-0.070037841796875,0.06959456724155835
1.670658826828003,-0.069580078125,0.07069517230916052
1.6716508865356445,-0.069580078125,0.07033592065329763
1.6721467971801758,-0.068817138671875,0.06921612784191092
1.6731390953063965,-0.071563720703125,0.07021492691743215
1.674130916595459,-0.07080078125,0.07032058567179555
1.6771070957183838,-0.06988525390625,0.06911398327027904
1.679090976715088,-0.0714111328125,0.07000045133197563
1.6800832748413086,-0.070953369140625,0.07334830364392472
1.6805789470672607,-0.070953369140625,0.06812382325906238
1.6815707683563232,-0.069580078125,0.07000056990922357
1.6820666790008545,-0.069580078125,0.0696294459936599
1.6825628280639648,-0.069580078125,0.06900386484185632
1.6835553646087646,-0.068511962890625,0.06916461121508062
1.6840510368347168,-0.070648193359375,0.07069698305856573
1.6860332489013672,-0.070037841796875,0.07178440700674732
1.6900029182434082,-0.069580078125,0.07017740177100809
1.6939704418182373,-0.069732666015625,0.06812130865467171
1.696451187133789,-0.070343017578125,0.0710857476902869
1.698434829711914,-0.069122314453125,0.06980464657491403
1.701906681060791,-0.0701904296875,0.06999564898851818
1.7024028301239014,-0.070343017578125,0.0695441109771705
1.7028989791870117,-0.070343017578125,0.06949778499405712
1.7043869495391846,-0.068817138671875,0.0681149703373746
1.706373929977417,-0.070648193359375,0.07265404004435191
1.7078590393066406,-0.07080078125,0.07116659587698188
1.7088522911071777,-0.070343017578125,0.06973966464094239
1.7093474864959717,-0.069122314453125,0.07199119980261437
1.7098429203033447,-0.069427490234375,0.07188549653039734
1.7108349800109863,-0.069427490234375,0.0711639337241014
1.7113311290740967,-0.069732666015625,0.06903266064523078
1.711827039718628,-0.069732666015625,0.06921108837382914
1.7128193378448486,-0.069732666015625,0.06970503487929777
1.7133147716522217,-0.069732666015625,0.06800197120267379
1.7143054008483887,-0.068817138671875,0.07119958620516821
1.7157964706420898,-0.06988525390625,0.07013646662592339
1.720257043838501,-0.070343017578125,0.06949696341530202
1.7207560539245605,-0.0701904296875,0.06974420754462402
1.7217471599578857,-0.0701904296875,0.07065104666614837
1.722243070602417,-0.0701904296875,0.06921241575325801
1.7227387428283691,-0.0701904296875,0.07038810695955858
1.7237308025360107,-0.0701904296875,0.07042607235798576
1.7252168655395508,-0.069427490234375,0.07047856159660272
1.7272026538848877,-0.069580078125,0.06816499955400299
1.7301790714263916,-0.071258544921875,0.07089552076425998
1.731170892715454,-0.068817138671875,0.0711811661547654
1.7316670417785645,-0.068817138671875,0.07039445882047318
1.7326586246490479,-0.069427490234375,0.06888052435675171
1.7331550121307373,-0.069427490234375,0.06930452031394169
1.734147071838379,-0.070648193359375,0.06861246837440885
1.7366290092468262,-0.0701904296875,0.07009308370175113
1.7391068935394287,-0.0714111328125,0.07009869913263171
1.7405953407287598,-0.070343017578125,0.06991810655300486
1.742081642150879,-0.070037841796875,0.06988828535077025
1.7430756092071533,-0.069732666015625,0.0680173349101325
1.7435708045959473,-0.069732666015625,0.06977408228138454
1.7450590133666992,-0.069732666015625,0.06994663314042604
1.7480354309082031,-0.0689697265625,0.07012841331396272
1.7495226860046387,-0.07049560546875,0.07021585553331902
1.7500190734863281,-0.07049560546875,0.07039923499546243
1.7510111331939697,-0.070343017578125,0.07040352045016042
1.751507043838501,-0.070037841796875,0.07040227053002535
1.7520034313201904,-0.06927490234375,0.06957378318370738
1.7529950141906738,-0.070648193359375,0.0691621900786489
1.753490686416626,-0.070343017578125,0.07170720423668653
1.7554752826690674,-0.069580078125,0.06810316731067828
1.7574591636657715,-0.070953369140625,0.06819159790091503
1.7604355812072754,-0.069732666015625,0.06947289733821654
1.7609307765960693,-0.069732666015625,0.06887536106895492
1.76192307472229,-0.06988525390625,0.07081091388969249
1.7624189853668213,-0.07080078125,0.07044478950591095
1.763411045074463,-0.07049560546875,0.07174384004282397
1.7644033432006836,-0.069580078125,0.07062347492415422
1.7673790454864502,-0.070037841796875,0.07013982090606341
1.768866777420044,-0.069732666015625,0.06964644726057619
1.7693629264831543,-0.0701904296875,0.0692583769902837
1.770354986190796,-0.06988525390625,0.06938500636615058
1.7708511352539062,-0.069122314453125,0.06860454936892918
1.7713470458984375,-0.06927490234375,0.07067327088252279
1.772339105606079,-0.069427490234375,0.07080593472248606
1.7728347778320312,-0.07110595703125,0.07040010744664854
1.7738268375396729,-0.070648193359375,0.07013135222819597
1.7777950763702393,-0.0701904296875,0.06929419628664585
1.7782912254333496,-0.069427490234375,0.07128373165970675
1.779282808303833,-0.0701904296875,0.07075349539442274
1.7797789573669434,-0.06988525390625,0.06896275818185818
1.780771017074585,-0.069732666015625,0.07116340501477794
1.7812671661376953,-0.069732666015625,0.06951022207129072
1.7817630767822266,-0.06988525390625,0.06982135720568519
1.7827553749084473,-0.0701904296875,0.06975121331774792
1.7832510471343994,-0.070648193359375,0.07125013437017591
1.7877132892608643,-0.07049560546875,0.07087744814213692
1.788707971572876,-0.0701904296875,0.06951086634222939
1.7892029285430908,-0.072021484375,0.07012461622531238
1.7901947498321533,-0.07110595703125,0.06961791222021552
1.7906908988952637,-0.07110595703125,0.07007331848364978
1.7911872863769531,-0.07110595703125,0.0696703545260236
1.792675256729126,-0.070343017578125,0.06865307749004998
1.7936668395996094,-0.070037841796875,0.06809478552435319
1.796147346496582,-0.07171630859375,0.06865172333220074
1.7991223335266113,-0.07049560546875,0.07120546319810975
1.800114631652832,-0.07080078125,0.07045910943821171
1.8006107807159424,-0.06988525390625,0.07008921419078828
1.801602840423584,-0.069580078125,0.06904491453809862
1.8020989894866943,-0.07049560546875,0.06948547871710643
1.803091287612915,-0.07049560546875,0.06954293163819963
1.8035874366760254,-0.07049560546875,0.06918851144146095
1.8050732612609863,-0.06927490234375,0.06956188611452865
1.8075551986694336,-0.070953369140625,0.06988428969596912
1.808547019958496,-0.069732666015625,0.07004874503373207
1.810034990310669,-0.070037841796875,0.07068555554792338
1.8110272884368896,-0.0701904296875,0.07047097556472981
1.811523199081421,-0.070037841796875,0.0705286819740823
1.812018871307373,-0.0701904296875,0.07258707852561475
1.8130111694335938,-0.07110595703125,0.07172107848477935
1.813507080078125,-0.07080078125,0.07164564285834746
1.8154914379119873,-0.06927490234375,0.07157824882812146
1.8189632892608643,-0.070648193359375,0.07044735293588195
1.8194594383239746,-0.07049560546875,0.06998926037915264
1.820450782775879,-0.070343017578125,0.07211042545309346
1.8209466934204102,-0.069427490234375,0.07039019141997985
1.8219387531280518,-0.069732666015625,0.07142935316006371
1.822434902191162,-0.070648193359375,0.06952751046098239
1.8229310512542725,-0.070648193359375,0.069160349112807
1.8239233493804932,-0.070648193359375,0.0705828842480108
1.827392816543579,-0.069732666015625,0.0709602148514541
1.8278908729553223,-0.06988525390625,0.07081702751796587
1.8293790817260742,-0.07110595703125,0.06863369706552341
1.8303711414337158,-0.06988525390625,0.07117576140876469
1.8313632011413574,-0.0689697265625,0.06929721853804399
1.8318588733673096,-0.068511962890625,0.07008673231450088
1.8323547840118408,-0.068511962890625,0.07024387716738778
1.8333468437194824,-0.069122314453125,0.06951482625449178
1.8348352909088135,-0.06988525390625,0.07024683140131496
1.8378112316131592,-0.0689697265625,0.07202389662018757
1.8388030529022217,-0.06866455078125,0.07174437430073806
1.839299201965332,-0.070037841796875,0.06948689147348489
1.8402907848358154,-0.071258544921875,0.07136620999211886
1.8407869338989258,-0.071258544921875,0.07088503557904036
1.841282844543457,-0.069732666015625,0.0710351322128547
1.842275619506836,-0.069732666015625,0.0697569714391161
1.8447530269622803,-0.0701904296875,0.0696712416195921
1.8472352027893066,-0.07049560546875,0.07054460806156287
1.8487231731414795,-0.068359375,0.07052303941574206
1.849714994430542,-0.07049560546875,0.07103788938194394
1.8502109050750732,-0.07049560546875,0.06975582486104173
1.851203203201294,-0.069732666015625,0.06979378125111944
1.851698875427246,-0.069732666015625,0.07144804322147157
1.8526911735534668,-0.069732666015625,0.07049456961717432
1.8531873226165771,2.434844970703125,0.0682742875087231
1.8536832332611084,2.440338134765625,0.16388500339563528
1.8551831245422363,2.43988037109375,0.1677646831415277
1.8606257438659668,-2.512054443359375,0.175444930074179
1.8621149063110352,-2.512054443359375,0.18649461864649106
1.8631072044372559,-2.51373291015625,-0.8140084238359644
1.8636033535003662,-2.51373291015625,-0.858295445593087
1.865586280822754,-2.514190673828125,-0.8955272717326768
1.870051383972168,2.43865966796875,-0.9281623102480715
1.8740229606628418,2.43865966796875,-0.9610649239573654
1.8765003681182861,2.440185546875,-0.994156257344577
1.8794748783111572,2.44049072265625,-1.0213798515295303
1.880467176437378,2.44110107421875,-1.0451297053688264
1.88096284866333,2.44110107421875,-1.0673243481248318
1.8814589977264404,2.44171142578125,-1.088551403379589
1.882451057434082,2.4407958984375,-1.1002710634191815
1.8829469680786133,2.4407958984375,-1.1125353199983525
1.8839390277862549,2.4407958984375,-1.1227577386407575
1.8854272365570068,2.440185546875,-1.128995603552265
1.8898911476135254,-2.5140380859375,-1.1322478627038555
1.8903872966766357,-2.51373291015625,2.5075546748519613
1.8913788795471191,-2.51373291015625,2.5152790268547007
1.8918750286102295,-2.514190673828125,2.516412992824083
1.8928673267364502,-2.514190673828125,2.5107340635138407
1.8933632373809814,-2.514190673828125,2.51098312117622
1.8948514461517334,-2.5140380859375,2.513626562928462
1.8968336582183838,-2.5146484375,2.5136417511188
1.9003069400787354,-2.513427734375,2.5141804754739305
1.901299238204956,-2.51434326171875,2.518923555630812
1.902784824371338,-2.51434326171875,2.5176005449298278
1.9037790298461914,-2.513275146484375,2.515846817450873
1.9127082824707031,-0.10162353515625,2.515102521567463
1.9161791801452637,2.44049072265625,2.419502560125157
1.9201455116271973,2.440643310546875,2.511056004437304
1.9246113300323486,2.440643310546875,2.508186269460981
1.927091360092163,2.440185546875,2.5053513012933433
1.9295718669891357,2.43988037109375,3.502781098874321
1.9325470924377441,2.439727783203125,2.555926605673407
1.9330432415008545,2.439727783203125,2.5530902606560057
1.9340355396270752,2.439727783203125,2.5492803564873414
1.9355230331420898,2.439727783203125,2.5458511842912834
1.9394915103912354,0.285797119140625,2.5428066825267863
1.9429614543914795,-0.92987060546875,2.4557535282139766
1.944946050643921,-2.514801025390625,2.4723084929980463
1.9464333057403564,-2.5146484375,2.5267983655871555
1.9489152431488037,-2.512969970703125,2.518541139114288
1.9499073028564453,-2.512969970703125,3.4049823367293666
1.9508988857269287,-2.513275146484375,3.2107187915374045
1.9523873329162598,-2.5146484375,2.5846873577566587
1.9533793926239014,-2.5146484375,2.5772894150138796
1.954369068145752,-2.5152587890625,2.568829640682948
1.956352949142456,2.438507080078125,-1.0359649021880666
1.9573473930358887,2.438812255859375,2.559274202366816
1.9593312740325928,2.440338134765625,2.5539842090335756
1.9628031253814697,-2.513275146484375,2.5494596233351037
1.9637954235076904,-2.513885498046875,2.5448415982602652
1.9687561988830566,2.43927001953125,2.5402037404115867
1.9702434539794922,2.439422607421875,2.535240983823648
1.9712350368499756,2.440185546875,2.5308113435160804
1.971731185913086,2.440185546875,2.526970144775826
1.9727232456207275,2.439117431640625,2.52201047029079
1.9737153053283691,2.439727783203125,-0.6960412845412122
1.9761953353881836,2.439727783203125,0.15035694223092888
1.9796671867370605,2.43927001953125,2.5146084262889405
1.9806592464447021,2.43896484375,2.51440303388344
1.9811551570892334,2.43988037109375,2.5114377887741073
1.982147455215454,2.440032958984375,2.5115357798602083
1.9826431274414062,2.4395751953125,2.5123466716654104
1.983635425567627,-2.514801025390625,2.514102987020629
1.985121488571167,-2.513580322265625,2.514177241352951
1.987107276916504,-2.514495849609375,2.515036603875865
1.9885954856872559,-2.5146484375,2.517179214370526
1.989091396331787,-2.51556396484375,2.516080398856051
1.9900832176208496,-2.515106201171875,2.515632045751086
1.9905791282653809,-2.51495361328125,2.512942495865232
1.9915711879730225,-2.51495361328125,2.5135071308142596
1.992563247680664,-2.515411376953125,2.5168777131820153
1.994051456451416,-2.51495361328125,2.5158478353442235
1.9965312480926514,-2.51495361328125,2.5153294758307196
1.999011516571045,-2.514190673828125,2.5153958792811997
2.0000033378601074,-2.5140380859375,2.516965366082756
2.0004992485046387,-2.51434326171875,2.5163178105038493
2.0014913082122803,-2.51373291015625,2.515144248252609
2.0019872188568115,-2.5140380859375,2.5162581493732694
2.002979278564453,-2.513275146484375,2.516128714694819
2.0034751892089844,-2.512664794921875,2.516175319506507
2.005458116531372,-2.512969970703125,2.515811093611368
2.009427547454834,2.440032958984375,2.516762393560741
2.0104196071624756,2.44049072265625,2.515152914461889
2.011411190032959,2.440338134765625,2.5136263223379287
2.0119073390960693,2.440338134765625,2.515290826347447
2.012899398803711,2.44049072265625,2.515423006635101
2.013395309448242,2.44049072265625,2.515818128283916
2.014385223388672,2.441253662109375,2.515405357731076
2.0173630714416504,2.440643310546875,2.5149885180209677
2.0188510417938232,2.440948486328125,2.5151103084977944
2.019843339920044,2.440643310546875,2.5156958819293282
2.020339250564575,2.4407958984375,2.515263230913575
2.021331310272217,2.4407958984375,2.515228817188841
2.021827459335327,2.4407958984375,2.5139236333280337
2.0223231315612793,2.43988037109375,2.5139497327551705
2.023315191268921,2.439422607421875,2.514306084296666
2.024801254272461,2.43988037109375,2.513094776701858
2.026789903640747,2.440185546875,2.5139057793519153
2.02976131439209,2.438812255859375,2.5126348326983363
2.0307552814483643,2.440185546875,2.5115023308818256
2.0312514305114746,1.16180419921875,2.51174039091569
2.032243251800537,1.09832763671875,2.464923895647203
2.0327394008636475,-0.102386474609375,2.4596362238113665
2.033235549926758,-0.917205810546875,2.414133649141088
2.0357136726379395,-2.514801025390625,2.439084850180829
2.0381956100463867,-2.51373291015625,3.0242186691507724
2.03918719291687,-2.515411376953125,3.071077931678804
2.0396833419799805,-2.515716552734375,3.5388745869205005
2.040675401687622,-2.514495849609375,3.250454641603273
2.0411715507507324,-2.514495849609375,2.6166863859725793
2.042659282684326,-2.51434326171875,2.6096506277571714
2.045137643814087,-2.514801025390625,2.6021481897973984
2.047121286392212,-2.5146484375,2.5926820712253327
2.052579402923584,-2.5140380859375,2.5856348336113824
2.05605149269104,-1.472015380859375,2.578542494451077
2.059523820877075,-1.0687255859375,2.5301649610131896
2.0605151653289795,-0.151824951171875,2.5043571736656514
2.0615074634552,-0.151824951171875,2.456236198199151
2.0620031356811523,0.160675048828125,2.4427644519578893
2.0624992847442627,0.337677001953125,2.8595452601278177
2.0634913444519043,0.337677001953125,1.1287908037227865
2.0649778842926025,0.6134033203125,1.4271806320975515
2.06646728515625,0.681915283203125,-0.12543130810047023
2.068451404571533,0.718841552734375,1.0926167423894555
2.0689473152160645,0.719451904296875,3.4358266333760707
2.069443464279175,0.719451904296875,3.460257867390959
2.070435047149658,0.72784423828125,3.372844510484183
2.0709311962127686,0.72784423828125,3.3596977901047507
2.071427345275879,0.607452392578125,3.3545805992702147
2.0724194049835205,0.5810546875,3.3583095569121215
2.072915554046631,0.5810546875,3.363483794365379
2.0739071369171143,0.480804443359375,3.3649151379359794
2.077378749847412,0.168609619140625,3.362292803499522
2.0798592567443848,-0.10650634765625,3.3977923630194424
2.0808515548706055,-0.1715087890625,1.8478053168095612
2.0813474655151367,-0.2142333984375,1.246520744641933
2.08233904838562,-0.277252197265625,-0.08149216291238498
2.0828351974487305,-0.30364990234375,0.049335234381457836
2.0833311080932617,-0.383453369140625,0.2371977766704554
2.0863068103790283,-0.56060791015625,0.48735425582907554
2.0877952575683594,-0.57281494140625,0.4850605349493228
2.088787794113159,-0.642242431640625,0.8765441635227895
2.0892834663391113,-0.652923583984375,0.9798228016997407
2.090275526046753,-0.671539306640625,1.006245038311211
2.090771198272705,-0.6787109375,0.9377539284493771
2.0912673473358154,-0.680389404296875,0.9319912991990374
2.0922608375549316,-0.681304931640625,0.9139070684833863
2.0927584171295166,-0.681304931640625,0.9062957634549947
2.093747138977051,-0.6768798828125,0.7162672738229443
2.0952353477478027,-0.6463623046875,0.6700953389965539
2.0977156162261963,-0.582427978515625,0.6639189783060092
2.0987071990966797,-0.579681396484375,0.5075706082991193
2.09920334815979,-0.550537109375,0.0378443852868691
2.0996994972229004,-0.545196533203125,-0.1700922062546272
2.100691556930542,-0.509490966796875,-0.06405158682517557
2.1011874675750732,-0.47698974609375,0.02260355858307631
2.102179527282715,-0.465850830078125,0.11615252909183932
2.102675437927246,-0.43914794921875,0.16718320124648317
2.1031713485717773,-0.42266845703125,0.28828160744019937
2.104163408279419,-0.390167236328125,0.5677905910014179
2.1066434383392334,-0.3387451171875,0.599975232113024
2.1086275577545166,-0.2783203125,0.7084474079511035
2.109619617462158,-0.25054931640625,0.7352765058740964
2.1101152896881104,-0.2337646484375,0.7711472557242361
2.111107587814331,-0.212554931640625,0.7968868987804469
2.1116034984588623,-0.200653076171875,0.8223206698162896
2.112595558166504,-0.188446044921875,0.8513568259883751
2.113091468811035,-0.176544189453125,0.8663084862665309
2.1135871410369873,-0.167694091796875,0.8701645798273134
2.1170597076416016,-0.147705078125,0.8368368864649186
2.1180531978607178,-0.142364501953125,0.7492756285249208
2.1185474395751953,-0.142364501953125,0.7534344896010358
2.119539499282837,-0.138397216796875,0.7180521600503292
2.120035409927368,-0.1385498046875,0.7165335585525575
2.1210274696350098,-0.139923095703125,0.674215138868946
2.121523857116699,-0.14373779296875,0.6306670900411377
2.1225154399871826,-0.146636962890625,0.6165780407110557
2.123011350631714,-0.1470947265625,0.580487070632503
2.1240034103393555,-0.149078369140625,0.5575733827714332
2.1269795894622803,-0.157012939453125,0.5099696895804956
2.1274752616882324,-0.158538818359375,0.43303250606274923
2.128467321395874,-0.16204833984375,0.34247755070189473
2.1289634704589844,-0.163726806640625,0.30150430745303114
2.1294591426849365,-0.166473388671875,0.2760935795893121
2.1304514408111572,-0.167236328125,0.24152196438599627
2.1309473514556885,-0.16815185546875,0.22316890653454913
2.13193941116333,-0.172882080078125,0.20346506694413002
2.1324353218078613,-0.17669677734375,0.1850167861435746
2.133427143096924,-0.181121826171875,0.17059591864303447
2.134915351867676,-0.184326171875,0.1403523664092443
2.136403799057007,-0.189056396484375,0.13187105405094984
2.1373939514160156,-0.193939208984375,0.12986451574611727
2.1393771171569824,-0.196990966796875,0.12227254161791204
2.1408677101135254,-0.19927978515625,0.12047972774967451
2.1413638591766357,-0.197601318359375,0.12095242165526565
2.1423556804656982,-0.1922607421875,0.12427539854896896
2.143843412399292,-0.18798828125,0.12597920590091805
2.1453311443328857,-0.181121826171875,0.12478231626496927
2.1463236808776855,-0.178680419921875,0.1260515796137871
2.1488037109375,-0.169525146484375,0.13800023494769065
2.149299383163452,-0.167236328125,0.1417075866955032
2.1502912044525146,-0.16632080078125,0.14833881171346028
2.150787353515625,-0.16357421875,0.15347451967500253
2.1512835025787354,-0.161285400390625,0.15846004008784956
2.152275323867798,-0.160675048828125,0.1633436678733297
2.1527717113494873,-0.159759521484375,0.16588239510466862
2.15376353263855,-0.157928466796875,0.17357510820862668
2.1552517414093018,-0.154876708984375,0.1806320200587907
2.1567394733428955,-0.155029296875,0.18840422219728942
2.157731294631958,-0.14678955078125,0.19380842782477498
2.1582274436950684,-0.14495849609375,0.20126327786670323
2.1597158908843994,-0.13916015625,0.20954770139912052
2.160707473754883,-0.13458251953125,0.21543310366447682
2.161203145980835,-0.13458251953125,0.21889882733787483
2.1621956825256348,-0.130157470703125,0.22002376351783004
2.162691593170166,-0.128173828125,0.21296918312919436
2.1631875038146973,-0.128173828125,0.2092154891800852
2.164179563522339,-0.1275634765625,0.20122717279861324
2.1666595935821533,-0.11993408203125,0.19795904102401662
2.168147563934326,-0.119476318359375,0.18617182153624537
2.1686434745788574,-0.1202392578125,0.18394011674319
2.16963529586792,-0.1202392578125,0.18296976566353534
2.1701314449310303,-0.1202392578125,0.17943415869005622
2.1706275939941406,-0.120086669921875,0.1794546010607135
2.1716196537017822,-0.120391845703125,0.17912864040552048
2.1721155643463135,-0.1239013671875,0.17782064316887314
2.1726114749908447,-0.123748779296875,0.1755237811676897
2.1736032962799072,-0.12359619140625,0.17122026858597372
2.1755876541137695,-0.117950439453125,0.17172180893602101
2.178067684173584,-0.116424560546875,0.15926339401873432
2.1790595054626465,-0.112152099609375,0.15515389692864737
2.180051565170288,-0.109405517578125,0.14641769271062777
2.1805474758148193,-0.109100341796875,0.13953095808264832
2.1810431480407715,-0.1068115234375,0.14181842811068054
2.182035446166992,-0.10772705078125,0.13581918734686968
2.1825313568115234,-0.108642578125,0.1347339654829253
2.183523416519165,-0.109100341796875,0.1360503810655475
2.1840193271636963,-0.110321044921875,0.13546657787306468
2.18649959564209,-0.112152099609375,0.12525079116120794
2.189476251602173,-0.116119384765625,0.12447039373047128
2.190467596054077,-0.113525390625,0.12556542408150473
2.1909635066986084,-0.1123046875,0.12542803384749654
2.191955804824829,-0.110015869140625,0.12501008997114765
2.1929478645324707,-0.108795166015625,0.12403086922399624
2.1934432983398438,-0.108642578125,0.12283416114508192
2.194929361343384,-0.10589599609375,0.1290720807754597
2.197409152984619,-0.1025390625,0.1292172537290518
2.1993954181671143,-0.099334716796875,0.12978728719571703
2.1998915672302246,-0.09918212890625,0.12175336266820172
2.200387477874756,-0.099334716796875,0.11954645136409614
2.2013795375823975,-0.099334716796875,0.11431187079525423
2.2018754482269287,-0.099334716796875,0.11164920342201712
2.202371597290039,-0.099334716796875,0.11263213522838514
2.2033634185791016,-0.098724365234375,0.10945453996531017
2.203859806060791,-0.100860595703125,0.11090092146612399
2.2063369750976562,-0.105133056640625,0.11250478327732946
2.207331657409668,-0.1019287109375,0.1135013630131008
2.2098114490509033,-0.099029541015625,0.11533738803469273
2.2112996578216553,-0.09765625,0.11833954373094055
2.2117955684661865,-0.09765625,0.12344726823294098
2.212291717529297,-0.09307861328125,0.11786170967741023
2.2132833003997803,-0.091094970703125,0.11712386293902888
2.214275598526001,-0.087432861328125,0.11481958510623007
2.2167561054229736,-0.089111328125,0.11345353551780521
2.217747449874878,-0.09033203125,0.1133264584083056
2.218243360519409,-0.09002685546875,0.11118604777232886
2.21923565864563,-0.0909423828125,0.10708802938086287
2.219731569290161,-0.092926025390625,0.10399406547429085
2.2207233905792236,-0.092926025390625,0.10335600218523777
2.221219301223755,-0.09307861328125,0.1032380914001613
2.2217154502868652,-0.09613037109375,0.10349547373845952
2.2227072715759277,-0.09613037109375,0.10336106148642524
2.223203659057617,-0.09613037109375,0.1026383686150714
2.2246897220611572,-0.09185791015625,0.10177793142820954
2.228163719177246,-0.088958740234375,0.10477983550827001
2.2291553020477295,-0.086212158203125,0.10980445025057692
2.2296512126922607,-0.08453369140625,0.10485477876303222
2.2306435108184814,-0.08453369140625,0.10038126483800132
2.231635808944702,-0.081024169921875,0.10000295550032046
2.233123540878296,-0.08453369140625,0.10104891108922895
2.233619213104248,-0.08453369140625,0.095527619808667
2.235105276107788,-0.0848388671875,0.09334854825962219
2.238083600997925,-0.09002685546875,0.08801355019140193
2.238579511642456,-0.091552734375,0.09229087664479607
2.2395718097686768,-0.093231201171875,0.09291478473559037
2.240067720413208,-0.093231201171875,0.09264431820020919
2.2410595417022705,-0.08941650390625,0.09400732124928111
2.2415554523468018,-0.0885009765625,0.09478400215109442
2.2430436611175537,-0.086517333984375,0.09410804236343276
2.2455217838287354,-0.08270263671875,0.09351200144920585
2.247009515762329,-0.0787353515625,0.09781554330648604
2.249988317489624,-0.07965087890625,0.09912541542127795
2.2509796619415283,-0.08087158203125,0.09949241800357092
2.2514755725860596,-0.080718994140625,0.0939415894658846
2.25197172164917,-0.083465576171875,0.09117740024834169
2.2529633045196533,-0.083465576171875,0.08889879084572999
2.2534596920013428,-0.083465576171875,0.08617076921289776
2.2559401988983154,-0.088653564453125,0.08579744935249214
2.2599081993103027,-0.083465576171875,0.08093407652033005
2.260899543762207,-0.0811767578125,0.08494267088159124
2.2613956928253174,-0.0811767578125,0.0849041801788804
2.262387752532959,-0.079345703125,0.08540713718816773
2.2628836631774902,-0.078125,0.09096411258997486
2.263875722885132,-0.0762939453125,0.09525024838053262
2.2663533687591553,-0.0775146484375,0.09864300587965075
2.2693328857421875,-0.078582763671875,0.09873562796987125
2.269827365875244,-0.0823974609375,0.09387177672507882
2.2703235149383545,-0.081634521484375,0.0932174691132751
2.271315574645996,-0.082855224609375,0.09106446191911075
2.2718117237091064,-0.086517333984375,0.08503039323042161
2.272803544998169,-0.087127685546875,0.07890031674038794
2.2732996940612793,-0.086822509765625,0.0787790090094872
2.2747859954833984,-0.083465576171875,0.0808954799885972
2.278259754180908,-0.0799560546875,0.08004627730805747
2.2792515754699707,-0.075225830078125,0.08247700455467691
2.280243396759033,-0.0732421875,0.08193643958281417
2.2807393074035645,-0.071868896484375,0.08185757650120354
2.281731605529785,-0.07293701171875,0.09080012322190437
2.2822277545928955,-0.074005126953125,0.0844824552787522
2.283219575881958,-0.074920654296875,0.08306522431910023
2.285203695297241,-0.0762939453125,0.08402001831836398
2.287682294845581,-0.0811767578125,0.08204825376360597
2.291156768798828,-0.081329345703125,0.08014219731347391
2.2931394577026367,-0.07843017578125,0.07711892652426858
2.2941315174102783,-0.077362060546875,0.07857287193405901
2.2976036071777344,-0.07354736328125,0.0796617511381441
2.298595666885376,-0.072479248046875,0.08324923525642106
2.2990915775299072,-0.073394775390625,0.08195178774046888
2.3000833988189697,-0.073394775390625,0.08494177732031115
2.30057954788208,-0.073394775390625,0.0908343090686543
2.3010754585266113,-0.0750732421875,0.0933230132610121
2.302067518234253,-0.07568359375,0.09344622804063119
2.3025636672973633,-0.078125,0.0881630565428222
2.303555727005005,-0.07904052734375,0.08307300523909487
2.304051399230957,-0.07904052734375,0.07610001988503917
2.3065316677093506,-0.081939697265625,0.07249675336628128
2.3100037574768066,-0.07659912109375,0.07032935298665077
2.310995578765869,-0.076141357421875,0.07071761376032379
2.3114917278289795,-0.074920654296875,0.07187809617277871
2.312483549118042,-0.073699951171875,0.0731412881551214
2.3129796981811523,-0.07293701171875,0.07388387006055233
2.3134756088256836,-0.07110595703125,0.08322496326361584
2.315459728240967,-0.069580078125,0.08355823166498638
2.3189399242401123,-0.073394775390625,0.07966533059723419
2.3199234008789062,-0.07720947265625,0.07873163924194634
2.3204195499420166,-0.0775146484375,0.07353519208089643
2.321411609649658,-0.077667236328125,0.07276374124981605
2.3219077587127686,-0.080413818359375,0.07486938502949696
2.3224036693573,-0.082244873046875,0.07353874537675581
2.3233957290649414,-0.08209228515625,0.07209112394534883
2.3248815536499023,-0.078277587890625,0.07444612965438155
2.3283557891845703,-0.07415771484375,0.07512879496074074
2.3303399085998535,-0.073699951171875,0.07745398831587993
2.3308358192443848,-0.06927490234375,0.07795627332568968
2.3318276405334473,-0.069427490234375,0.07770781433556924
2.3323235511779785,-0.069427490234375,0.08347348378182987
2.33331561088562,-0.072784423828125,0.07714283840575888
2.3338115215301514,-0.072784423828125,0.07679692966250372
2.3357961177825928,-0.075836181640625,0.07683328459430513
2.3392677307128906,-0.081634521484375,0.07519386735330658
2.339768886566162,-0.081634521484375,0.07440905740759135
2.3407557010650635,-0.079803466796875,0.07042200099419656
2.3412516117095947,-0.07720947265625,0.06814547581045366
2.341747760772705,-0.07720947265625,0.07255262772384455
2.343235731124878,-0.07568359375,0.07585503276521069
2.3457143306732178,-0.07232666015625,0.07612971061633755
2.3481955528259277,-0.067901611328125,0.07686115906900688
2.348691701889038,-0.069732666015625,0.08177214532110486
2.3491876125335693,-0.07110595703125,0.08453284279034355
2.35017991065979,-0.07232666015625,0.08493293905870786
2.3506758213043213,-0.072784423828125,0.08064599969866933
2.3516674041748047,-0.073699951171875,0.07638919105661957
2.352163553237915,-0.07476806640625,0.07512132354134464
2.3531556129455566,-0.076446533203125,0.06808878027038942
2.353651762008667,-0.076446533203125,0.06794664390900508
2.358114242553711,-0.077667236328125,0.06780779540499485
2.3596043586730957,-0.07598876953125,0.07253321531605512
2.3600997924804688,-0.07598876953125,0.07205880114410274
2.3610918521881104,-0.07415771484375,0.07592851025235325
2.3615877628326416,-0.07354736328125,0.08447956597548437
2.362083673477173,-0.07354736328125,0.0839135524137623
2.3630759716033936,-0.07354736328125,0.08180336451649484
2.3635716438293457,-0.0726318359375,0.07789019908288058
2.3650596141815186,-0.069427490234375,0.078564739269815
2.3680357933044434,-0.07171630859375,0.07640373633399371
2.369523763656616,-0.07537841796875,0.07148099020986846
2.3700199127197266,-0.075531005859375,0.06501818865167856
2.370515823364258,-0.075836181640625,0.06813827929365958
2.371507406234741,-0.0775146484375,0.07156086957101548
2.3720035552978516,-0.0775146484375,0.07261398053337387
2.372995615005493,-0.0811767578125,0.0718460188480338
2.3734917640686035,-0.07904052734375,0.07328077303386443
2.3749802112579346,-0.0762939453125,0.0746574226915875
2.3794491291046143,-0.07171630859375,0.07634902132401082
2.3804357051849365,-0.06866455078125,0.07612066773908874
2.381427526473999,-0.06744384765625,0.07624693731683746
2.3819236755371094,-0.0677490234375,0.07442660538076573
2.3824198246002197,-0.0677490234375,0.07546182460287248
2.3834116458892822,-0.07110595703125,0.07456741366715859
2.3848979473114014,-0.071868896484375,0.07509372119316274
2.389364719390869,-0.08026123046875,0.07573844335058905
2.3908519744873047,-0.07843017578125,0.07607896604156117
2.3913474082946777,-0.078125,0.07478002156609846
2.3928356170654297,-0.07568359375,0.06874324066305879
2.394818067550659,-0.073699951171875,0.07182433623781767
2.396305561065674,-0.069732666015625,0.07379372715472424
2.3987877368927,-0.067291259765625,0.0744893022958886
2.3997795581817627,-0.07171630859375,0.07487472479807109
2.400275468826294,-0.071563720703125,0.07846124194228904
2.4012675285339355,-0.07232666015625,0.07922393644892009
2.401763916015625,-0.073089599609375,0.08634783511597512
2.4027559757232666,-0.07537841796875,0.0842731133343724
2.4032516479492188,-0.07598876953125,0.07855028626288652
2.405236005783081,-0.076141357421875,0.07182313277117225
2.4082114696502686,-0.078277587890625,0.06698335937564398
2.4096999168395996,-0.0775146484375,0.06494472778478588
2.410691738128662,-0.0738525390625,0.06443072465968616
2.4111876487731934,-0.071258544921875,0.06400173064635818
2.412179708480835,-0.0714111328125,0.0688051232297089
2.4126758575439453,-0.070648193359375,0.06902064209931469
2.413667917251587,-0.06805419921875,0.0817309429153949
2.414163827896118,-0.066680908203125,0.08032748572641968
2.4171395301818848,-0.07171630859375,0.08087823951010902
2.419123649597168,-0.0750732421875,0.07740252686411214
2.4201157093048096,-0.075531005859375,0.07491470673871009
2.420611619949341,-0.075836181640625,0.0701338874323188
2.421107769012451,-0.077056884765625,0.06718670552159259
2.4220998287200928,-0.077056884765625,0.07190352703154547
2.422595977783203,-0.080413818359375,0.07032823421082846
2.4235875606536865,-0.080108642578125,0.07138130593512595
2.4250736236572266,-0.07781982421875,0.07235303070791904
2.429044008255005,-0.072021484375,0.07514470581678365
2.4300358295440674,-0.06683349609375,0.07577469265604511
2.43102765083313,-0.066070556640625,0.07434718725923732
2.4315240383148193,-0.06805419921875,0.0774790671161102
2.4320197105407715,-0.06805419921875,0.07720770474966761
2.433011770248413,-0.070648193359375,0.07403086038328188
2.4335081577301025,-0.070953369140625,0.07242651913579179
2.4369797706604004,-0.07537841796875,0.07311599771935812
2.439459800720215,-0.080413818359375,0.07148133748072047
2.4404518604278564,-0.078582763671875,0.06792256867871334
2.4419398307800293,-0.075836181640625,0.06485472877223203
2.4424359798431396,-0.0762939453125,0.07221434483454621
2.443427324295044,-0.074462890625,0.07548601138100214
2.4444198608398438,-0.07171630859375,0.07398607010883484
2.446899652481079,-0.0689697265625,0.07494956427580751
2.449875831604004,-0.067138671875,0.07769602837456803
2.4508676528930664,-0.07110595703125,0.07738254823152238
2.4513635635375977,-0.070648193359375,0.08323033692678816
2.4523558616638184,-0.072784423828125,0.08385207993905246
2.4528517723083496,-0.07476806640625,0.08167040899103878
2.453843832015991,-0.074615478515625,0.0739272212911414
2.455332040786743,-0.079803466796875,0.06465217477898268
2.4578115940093994,-0.079345703125,0.06394037572874749
2.459796667098999,-0.0750732421875,0.06605566238150098
2.460291624069214,-0.07293701171875,0.06508916404924184
2.4612836837768555,-0.073089599609375,0.06892437837009907
2.461779832839966,-0.070648193359375,0.06722631770050229
2.4627716541290283,-0.070648193359375,0.07379225332502673
2.4632678031921387,-0.070648193359375,0.08295154210494979
2.4647560119628906,-0.066070556640625,0.08107095729733865
2.4667396545410156,-0.066375732421875,0.0767348869763826
2.467236042022705,-0.068511962890625,0.07843065837283839
2.4682276248931885,-0.068511962890625,0.075816618122891
2.468723773956299,-0.071258544921875,0.07174493882397043
2.4697158336639404,-0.073394775390625,0.06967690622319173
2.4702117443084717,-0.073394775390625,0.06703718485101622
2.470707654953003,-0.07476806640625,0.07220435939379236
2.4716997146606445,-0.07476806640625,0.07166469665289546
2.472195625305176,-0.07476806640625,0.07380680434883624
2.472691774368286,-0.07476806640625,0.07591242597034031
2.4736838340759277,-0.07537841796875,0.07566740033118868
2.474179744720459,-0.07843017578125,0.08284309328657019
2.477155923843384,-0.0726318359375,0.08222521758479981
2.48062801361084,-0.064697265625,0.07556689655125173
2.4821157455444336,-0.067291259765625,0.07200699461653853
2.482611656188965,-0.067291259765625,0.07201140966173265
2.4836037158966064,-0.067291259765625,0.06700800515394663
2.484596014022827,-0.07049560546875,0.06923993640717097
2.486083745956421,-0.075836181640625,0.07261762765684526
2.4890599250793457,-0.081024169921875,0.0650724400700452
2.4905476570129395,-0.083465576171875,0.06583291776005662
2.4910435676574707,-0.07781982421875,0.06923665248844785
2.4920358657836914,-0.076446533203125,0.06782614262275935
2.493027925491333,-0.07537841796875,0.06973111488888067
2.4940202236175537,-0.07537841796875,0.07068035088494018
2.495506525039673,-0.06805419921875,0.06950296882517046
2.497987985610962,-0.063323974609375,0.07338360499593952
2.4989798069000244,-0.063323974609375,0.0736698952618705
2.4994757175445557,-0.067291259765625,0.07403288979018503
2.5004677772521973,-0.068511962890625,0.0741188371092638
2.5009639263153076,-0.069580078125,0.07803540625915342
2.501459836959839,-0.072021484375,0.08467696123729027
2.5029478073120117,-0.0732421875,0.07631125477167616
2.503443717956543,-0.0732421875,0.06306532373863452
2.5044357776641846,-0.08392333984375,0.06653294897603297
2.5064196586608887,-0.0885009765625,0.06659556397616663
2.506915807723999,-0.090484619140625,0.06584522737912943
2.5079076290130615,-0.08544921875,0.07024977554907347
2.508403778076172,-0.1708984375,0.07806860473657348
2.509891986846924,2.439422607421875,0.08481262964929515
2.5108840465545654,2.4395751953125,0.17902447881418512
2.511875867843628,2.440185546875,0.1729723744492958
2.512371778488159,2.439727783203125,0.17948724019085888
2.513363838195801,2.440338134765625,0.15235959606723626
2.5148518085479736,-2.51251220703125,-0.8093024802483784
2.5178279876708984,-2.513427734375,-0.8620551334395459
2.518819808959961,-2.51434326171875,-0.9077208911819539
2.5198118686676025,-2.514190673828125,-0.9435798003230236
2.520308017730713,-2.51373291015625,-0.9703030868519816
2.5212998390197754,-2.51434326171875,-0.9974774239529804
2.5217955112457275,-2.51495361328125,-1.0231666204528636
2.5227878093719482,-2.515716552734375,-1.0438844519860624
2.5232839584350586,-2.515716552734375,-1.0630512410474318
2.5247700214385986,-2.51495361328125,-1.0809860589319
2.5262603759765625,-2.514190673828125,-1.0804786344282789
2.5297353267669678,-2.51373291015625,-1.0860994069715375
2.530229091644287,2.439117431640625,-1.0926309908541902
2.531219720840454,1.93603515625,-1.1061910485041881
2.5317158699035645,2.440032958984375,-1.001342666435241
2.5322117805480957,2.440032958984375,2.515289035761933
2.5332038402557373,2.439422607421875,2.5150129829325407
2.5351879596710205,2.43988037109375,2.513222362014758
2.5381619930267334,2.440643310546875,2.7220055302626394
2.5391571521759033,2.44110107421875,2.5233141945436763
2.539652109146118,2.43988037109375,2.5193865799490816
2.5406436920166016,2.439727783203125,2.5199656919159636
2.541139841079712,2.44110107421875,2.5206304926632734
2.542628049850464,2.44110107421875,2.5200665651832606
2.5436203479766846,2.440948486328125,2.5190961540807453
2.546099901199341,2.4407958984375,2.518656208323101
2.549074172973633,2.4407958984375,2.519134124876155
2.549571990966797,2.44140625,2.519968925935583
2.550067663192749,2.440185546875,2.519337862979814
2.5510599613189697,2.439727783203125,2.517683370664633
2.55155611038208,2.43988037109375,2.515879408947998
2.5525479316711426,1.74163818359375,2.5145479995545887
2.553043842315674,1.42608642578125,2.489171693618552
2.553539514541626,-2.512359619140625,1.7224849989631899
2.555027961730957,-2.51434326171875,2.5115961769916586
2.5570123195648193,-2.514495849609375,2.509054780354245
2.559495210647583,-2.51373291015625,2.796735321574191
2.561476230621338,-2.5140380859375,2.9426035236781303
2.5624678134918213,-2.514495849609375,2.544202343633389
2.5629637241363525,-2.5140380859375,2.5402736188258013
2.563459634780884,-2.5140380859375,2.5408786971955566
2.566434860229492,-2.514190673828125,2.538455180786136
2.568915843963623,-2.5140380859375,2.53515355814518
2.570403814315796,-2.514190673828125,2.532906813481823
2.570899724960327,-2.513580322265625,2.530812506958766
2.5713956356048584,-2.51434326171875,2.528960857992288
2.572387933731079,-2.514495849609375,2.5268622316175433
2.5728838443756104,-2.5146484375,2.523934442459871
2.573875665664673,-2.5146484375,2.5231350551369065
2.576354503631592,1.32415771484375,2.5219314794249077
2.5778439044952393,2.439727783203125,2.4747460961022036
2.5813138484954834,2.440643310546875,1.4757738460728027
2.582308769226074,-2.51190185546875,1.0007897905991332
2.582803726196289,-2.512054443359375,2.5065911226397204
2.5837960243225098,-2.513275146484375,2.9709805193711567
2.5852816104888916,-1.97296142578125,2.533306241355658
2.5862739086151123,-2.514190673828125,2.5098693010392172
2.5887627601623535,-2.514190673828125,2.5305466508752272
2.5902462005615234,2.43865966796875,2.5291308236638157
2.591236114501953,2.43896484375,2.525987642079194
2.592723846435547,2.4395751953125,2.7481358581384216
2.594212055206299,2.440032958984375,2.53465067263133
2.596196174621582,2.440032958984375,2.532421867037124
2.5991721153259277,-2.5128173828125,2.529836472821005
2.6001639366149902,-2.51312255859375,2.526649783914307
2.6006598472595215,-2.5128173828125,2.5259810143948838
2.601651668548584,-2.51373291015625,2.524308115651971
2.6021478176116943,-2.51373291015625,2.522484617084232
2.603139877319336,-2.51434326171875,2.521459635550828
2.6036360263824463,-2.513885498046875,0.8550722950194436
2.6056199073791504,-2.5152587890625,2.519465894344408
2.607602834701538,-2.514801025390625,2.5171391993066816
2.6105802059173584,2.43896484375,2.5130422981192204
2.611572027206421,2.43896484375,2.5124014252336253
2.612067937850952,2.439117431640625,2.513739790093676
2.6130599975585938,2.439727783203125,1.706572213415957
2.613555669784546,2.440338134765625,2.514014138185981
2.616532325744629,2.4395751953125,2.513411952716568
2.6190121173858643,-2.5128173828125,2.516233895794871
2.6195080280303955,-2.512664794921875,2.516365774320513
2.620500087738037,-2.5128173828125,2.5159026405253786
2.6209959983825684,-2.513427734375,2.5155770229007786
2.621987819671631,-2.513885498046875,2.5154006834447014
2.622483730316162,-2.513885498046875,2.512538360504694
2.623476028442383,-2.5146484375,2.513092365100963
2.6244680881500244,-2.5140380859375,2.512644293236315
2.6284360885620117,-2.51373291015625,2.513771916585048
2.6314122676849365,-2.513580322265625,2.5135952963659873
2.632404088973999,-2.514495849609375,2.5145142227484047
2.6333956718444824,-2.5152587890625,2.513564625750044
2.6348824501037598,2.43896484375,2.515892801910933
2.638852834701538,2.440185546875,2.5153839207980964
2.6398439407348633,2.440338134765625,2.5174800987442714
2.6403400897979736,2.440338134765625,2.5175726816084842
2.641331672668457,2.440338134765625,2.5179386992497785
2.642324209213257,2.44110107421875,2.5157050925409807
2.6438121795654297,2.4407958984375,2.514645095426661
2.646291971206665,2.440185546875,2.5153675900316426
2.6482760906219482,2.44140625,2.511752333310412
2.651252269744873,2.44049072265625,2.5115844571640147
2.6522443294525146,2.440032958984375,2.5121549259190745
2.6537318229675293,2.43988037109375,2.5130945335772106
2.6557154655456543,2.440338134765625,2.513266579404213
2.6576998233795166,2.43896484375,2.5137771811232588
2.658195972442627,-2.057647705078125,2.514582558325215
2.6601803302764893,-2.513275146484375,2.4953819957918926
2.6606762409210205,-2.513580322265625,2.512454947892951
2.6611719131469727,-2.513885498046875,2.511418485372123
2.662163734436035,-2.51434326171875,2.5118452360448527
2.6626598834991455,-2.514801025390625,2.7026060556810108
2.663652181625366,-2.51434326171875,2.52526099815333
2.6656363010406494,-2.51434326171875,2.523241062940596
2.6681149005889893,-2.514801025390625,2.5223648416172724
2.670100212097168,-2.5140380859375,2.5216605361069844
2.6710920333862305,-2.513580322265625,2.520440693933495
2.6715879440307617,-2.513885498046875,2.518917916428646
2.672084093093872,-2.514190673828125,2.5183837117313166
2.6730761528015137,-2.514495849609375,2.5194798964998535
2.673572063446045,-2.514801025390625,2.5174271327671645
2.6765482425689697,-2.513885498046875,2.5184494537099043
2.6785318851470947,-2.51434326171875,2.518429012677143
2.6795241832733154,-2.514495849609375,2.517080297881643
2.6800200939178467,-2.513580322265625,2.5170699859546253
2.68101167678833,-2.51373291015625,2.517459223473571
2.6815078258514404,-2.513885498046875,1.8332975558652198
2.682500123977661,-1.094818115234375,2.5127430036855833
2.6834921836853027,-0.262451171875,2.45712109971631
2.685473918914795,1.714630126953125,2.4231327831980907
2.6869637966156006,2.440643310546875,2.479004642540348
2.689444065093994,2.440185546875,2.5021939644994307
2.6904361248016357,2.440338134765625,3.084375534242637
2.690932035446167,2.440185546875,3.457784926374706
2.6919240951538086,2.4407958984375,2.872690416944359
2.6934120655059814,2.44110107421875,2.58304522731595
2.695396661758423,2.44049072265625,2.5768936061472005
2.6968839168548584,2.440338134765625,2.5719880171338847
2.6983721256256104,2.44049072265625,2.567354151158581
2.699857473373413,2.440185546875,2.562504794061911
2.700852155685425,2.440185546875,2.557788200371327
2.701347827911377,2.440338134765625,2.5511254843441806
2.7023401260375977,2.4395751953125,2.5461706996629245
2.702836036682129,2.196502685546875,2.5411198017300083
2.7038283348083496,2.049407958984375,2.5246974443963515
2.707794666290283,1.222686767578125,2.513311905335257
2.708292245864868,0.359954833984375,2.4745787666132713
2.709779977798462,-0.128936767578125,0.31528354418482407
2.7107722759246826,-0.232391357421875,-0.8463502054888676
2.7112679481506348,-0.468902587890625,1.4937372801994662
2.7122597694396973,-0.609588623046875,2.9235365997117837
2.7127559185028076,-0.624847412109375,3.3031840806459414
2.713747978210449,-0.777130126953125,3.4638980627921616
2.7172200679779053,-1.064910888671875,3.4644011000994017
2.718708038330078,-1.1358642578125,3.4112716447500215
2.7192041873931885,-1.1358642578125,3.3816201922892715
2.7197000980377197,-1.1358642578125,3.3967432720003368
2.7206921577453613,-1.1395263671875,3.3542000286407183
2.7211880683898926,-1.10321044921875,3.248977952390357
2.721684217453003,-1.07452392578125,3.2238675476673
2.7226760387420654,-1.07452392578125,3.2250719731861324
2.723172187805176,-1.07452392578125,3.2253797896177305
2.7246599197387695,-0.85540771484375,3.2237034707145282
2.7276363372802734,-0.648345947265625,2.862940913674325
2.7291219234466553,-0.41778564453125,2.643917720642835
2.7296202182769775,-0.395965576171875,1.3974777735972383
2.730612277984619,-0.286102294921875,0.10022946545543797
2.7311079502105713,-0.286102294921875,-0.2762391339145268
2.7316040992736816,-0.286102294921875,-0.037588018544729616
2.7325961589813232,-0.07110595703125,0.4142641096392154
2.7330920696258545,-0.04974365234375,0.6333672394655665
2.734083890914917,0.02899169921875,0.7094072626982019
2.735572338104248,0.120697021484375,0.9491068882139755
2.737058639526367,0.1824951171875,1.3916190098641767
2.7400357723236084,0.3021240234375,1.5977293541448991
2.7405319213867188,0.304107666015625,1.6240648095082078
2.7415242195129395,0.328369140625,1.6144016454457981
2.7430121898651123,0.345306396484375,1.593065127190795
2.7435085773468018,0.346832275390625,1.5206917564579019
2.7454922199249268,0.341644287109375,1.432380052878252
2.7464816570281982,0.33050537109375,1.4329317499225216
2.7499570846557617,0.25177001953125,1.4229054671129535
2.7504522800445557,0.249786376953125,1.084824619449017
2.750947952270508,0.238800048828125,0.7732825603088055
2.7519402503967285,0.196075439453125,0.4277777739324757
2.7524359226226807,0.16632080078125,0.39603587911783905
2.7534282207489014,0.16082763671875,0.2607641500269587
2.7549164295196533,0.100860595703125,0.2605223437834084
2.7578909397125244,0.0469970703125,0.2618051099348752
2.759380340576172,0.001983642578125,-0.04391000806705037
2.759876251220703,0.001983642578125,-0.06496523243127392
2.760869026184082,-0.009765625,0.017402652931212275
2.761364221572876,-0.009765625,0.17939022013068737
2.7623560428619385,-0.051116943359375,0.29715097382544325
2.762852191925049,-0.05889892578125,0.5002181458762611
2.763348340988159,-0.06195068359375,0.506213908490442
2.764836072921753,-0.074615478515625,0.5500707839911249
2.7673161029815674,-0.09124755859375,0.5794040954877595
2.7678122520446777,-0.101318359375,0.5904653309358923
2.768308162689209,-0.101318359375,0.5852631413757361
2.7692999839782715,-0.109100341796875,0.5676308046936577
2.7697958946228027,-0.11077880859375,0.448233807897449
2.7707881927490234,-0.111846923828125,0.4399603546114253
2.7712841033935547,-0.1123046875,0.4202984081617556
2.772275924682617,-0.113067626953125,0.35650316958919004
2.7727718353271484,-0.1141357421875,0.309093871222922
2.773268222808838,-0.11383056640625,0.30052523654851643
2.776740312576294,-0.091094970703125,0.2097939427190733
2.7807061672210693,-0.0567626953125,0.12970385091086897
2.782196044921875,-0.0390625,0.05898683922187163
2.7826921939849854,-0.0390625,0.057255039018630216
2.783684253692627,-0.03448486328125,0.03963699214881686
2.7856686115264893,-0.03143310546875,0.048432616287783156
2.787156343460083,-0.03173828125,0.04136560501366551
2.789140224456787,-0.031585693359375,0.06094335984485651
2.7896361351013184,-0.031585693359375,0.06650895313204516
2.7901322841644287,-0.0299072265625,0.08562927903993287
2.791124105453491,-0.0299072265625,0.11082978970619525
2.7916204929351807,-0.0238037109375,0.12642005617710056
2.7931084632873535,-0.0201416015625,0.1272551642221593
2.794100284576416,-0.02044677734375,0.13969791643947055
2.7950923442840576,-0.018310546875,0.14161264654769273
2.797572135925293,-0.011749267578125,0.1437438729071343
2.8000521659851074,-0.0238037109375,0.1434620412676613
2.8005480766296387,-0.0238037109375,0.14275838665873997
2.8015401363372803,-0.02410888671875,0.1444347483305111
2.8020362854003906,-0.033416748046875,0.14334843204549347
2.802532196044922,-0.038299560546875,0.10609125338490381
2.8035242557525635,-0.038299560546875,0.059162399881488734
2.8055062294006348,-0.048370361328125,0.03266088294883844
2.8084840774536133,-0.0567626953125,0.032956317603364406
2.8104684352874756,-0.053863525390625,0.03991697084550429
2.810964345932007,-0.05126953125,0.043505142935304025
2.8119559288024902,-0.05126953125,0.04456271726755861
2.8124520778656006,-0.050048828125,0.04087338884918992
2.813444137573242,-0.04791259765625,0.03737574712206857
2.8154284954071045,-0.049591064453125,0.04265966236038327
2.8174121379852295,-0.05767822265625,0.04371362034193412
2.8189003467559814,-0.064697265625,0.04992821347449609
2.819891929626465,-0.066375732421875,0.05661798746554479
2.820388078689575,-0.067901611328125,0.05760364884895745
2.821380138397217,-0.07171630859375,0.05934501347810006
2.821876287460327,-0.074920654296875,0.06646096716570146
2.8228681087493896,-0.075531005859375,0.04650336945244296
2.8233642578125,-0.075225830078125,0.045592503250881114
2.824852228164673,-0.067901611328125,0.044699265087147715
2.8283236026763916,-0.06378173828125,0.02823387636510402
2.82882022857666,-0.05523681640625,0.021876136725113418
2.8298120498657227,-0.05157470703125,0.020925554323637262
2.830308198928833,-0.048675537109375,0.03557281332003667
2.8313004970550537,-0.0482177734375,0.05066642395858104
2.8317959308624268,-0.050201416015625,0.04784515739218022
2.832292079925537,-0.0531005859375,0.04750027734970059
2.8332841396331787,-0.05462646484375,0.04923633749652052
2.8347723484039307,-0.057220458984375,0.04887107296769016
2.8382420539855957,-0.065765380859375,0.046245749366861516
2.838740348815918,-0.074005126953125,0.04855728469177157
2.8397319316864014,-0.0738525390625,0.06001257854198007
2.8402280807495117,-0.07110595703125,0.07006841867058193
2.8412201404571533,-0.071258544921875,0.07159087072717374
2.8417162895202637,-0.071258544921875,0.07047735899552021
2.842211961746216,-0.069427490234375,0.07270021380777997
2.8432044982910156,-0.0640869140625,0.0772251820365723
2.8437001705169678,-0.0640869140625,0.07881396042300308
2.8451859951019287,-0.057830810546875,0.07809394849565617
2.8496503829956055,-0.050048828125,0.06670081867956369
2.850149393081665,-0.050048828125,0.06077136841362879
2.851140022277832,-0.050048828125,0.050027563458923806
2.8516361713409424,-0.052490234375,0.04446934889442384
2.8521320819854736,-0.061187744140625,0.04273758132497721
2.8531243801116943,-0.06622314453125,0.045680807929408984
2.8536202907562256,-0.069122314453125,0.04909587650944272
2.8556041717529297,-0.0738525390625,0.053815497268551685
2.8570921421051025,-0.0762939453125,0.05556948095210619
2.8600680828094482,-0.069732666015625,0.05620018771578546
2.8615562915802,-0.06256103515625,0.06669113170266486
2.862548351287842,-0.061187744140625,0.0774747936371756
2.863044023513794,-0.061187744140625,0.07512483633638747
2.863539934158325,-0.059814453125,0.06977908528797813
2.865025758743286,-0.058746337890625,0.07236620260394597
2.8675079345703125,-0.064239501953125,0.07513104595532456
2.868500232696533,-0.065765380859375,0.07317175490096668
2.8689961433410645,-0.06927490234375,0.06527728159033855
2.869988203048706,-0.072479248046875,0.06599917418940611
2.8704841136932373,-0.073699951171875,0.05729035893043374
2.871476173400879,-0.073699951171875,0.04354986802645631
2.87197208404541,-0.080108642578125,0.042915152881257676
2.8724682331085205,-0.081634521484375,0.04170465297760716
2.873460054397583,-0.080108642578125,0.04402547839243689
2.875943422317505,-0.07293701171875,0.05634230855860768
2.8779244422912598,-0.06622314453125,0.06347565816288109
2.878420352935791,-0.06622314453125,0.06478936322660636
2.878916025161743,-0.06195068359375,0.07096671058212552
2.8799080848693848,-0.05859375,0.07477881236944078
2.880403995513916,-0.05859375,0.06755604583315085
2.8813960552215576,-0.057525634765625,0.059519660140000485
2.881892204284668,-0.05889892578125,0.057458058990600344
2.8828840255737305,-0.061798095703125,0.05930859483777333
2.883380174636841,-0.064239501953125,0.058889898437401174
2.8853647708892822,-0.064544677734375,0.057599009347397645
2.8868520259857178,-0.07476806640625,0.06646253316338076
2.8898282051086426,-0.081024169921875,0.06881442417680357
2.8908205032348633,-0.0811767578125,0.07331704720536635
2.8913161754608154,-0.079803466796875,0.07726251557140008
2.891812324523926,-0.07568359375,0.07903072077399922
2.8933002948760986,-0.072021484375,0.07475683119494039
2.8942923545837402,-0.069427490234375,0.08146561716792557
2.895780563354492,-0.064849853515625,0.08330473146320211
2.899749517440796,-0.064239501953125,0.08112504515805614
2.900740146636963,-0.067138671875,0.071830783731648
2.9017324447631836,-0.067291259765625,0.06325273429221866
2.902228355407715,-0.06927490234375,0.06422478211878063
2.9032201766967773,-0.0750732421875,0.05978159735046488
2.9037160873413086,-0.075531005859375,0.05532684632963869
2.906205415725708,-0.084991455078125,0.054248912897602225
2.907682180404663,-0.08392333984375,0.05302602532632174
2.9086763858795166,-0.08392333984375,0.054302638274187
2.9106605052948,-0.074005126953125,0.056300872361441025
2.911156177520752,-0.06805419921875,0.059331815470016175
2.9121482372283936,-0.06591796875,0.05559864430547459
2.913140296936035,-0.06591796875,0.07095603219231851
2.9136362075805664,-0.05889892578125,0.08004860051716835
2.916116237640381,-0.063629150390625,0.08385376036389569
2.919093370437622,-0.0714111328125,0.08440631411671691
2.920084238052368,-0.074310302734375,0.07952034102117023
2.9205801486968994,-0.07720947265625,0.0742843854037472
2.9210762977600098,-0.07720947265625,0.07355806816814475
2.9220685958862305,-0.07720947265625,0.06506258553290217
2.9225640296936035,-0.07720947265625,0.061123524140136914
2.923556089401245,-0.084228515625,0.06427739507513504
2.924548625946045,-0.081329345703125,0.06355560309501637
2.926034927368164,-0.07568359375,0.06633000832453731
2.928514242172241,-0.070037841796875,0.07470202476434766
2.9290122985839844,-0.06622314453125,0.0751084992593305
2.930004358291626,-0.06622314453125,0.08609547839276306
2.930500030517578,-0.065155029296875,0.08545022250584139
2.9314920902252197,-0.059356689453125,0.0875396829383758
2.93198823928833,-0.059356689453125,0.07475696131206344
2.9324843883514404,-0.059356689453125,0.06747535274196281
